Raman Shift ; Dark Subtracted #1
-2.0000;20159.8600
-1.0000;18631.3500
0.0000;16373.3800
1.0000;13603.2400
2.0000;10551.6100
3.0000;7622.9890
4.0000;5258.2840
5.0000;3280.8760
6.0000;1965.8640
7.0000;1545.8490
8.0000;1259.6960
9.0000;1096.3680
10.0000;1212.5910
11.0000;1154.8060
12.0000;746.3479
13.0000;319.5107
14.0000;12.6029
15.0000;-76.2347
16.0000;-3.9715
17.0000;66.6046
18.0000;61.1656
19.0000;57.9871
20.0000;54.3513
21.0000;48.2781
22.0000;43.4616
23.0000;40.7946
24.0000;41.2378
25.0000;43.9873
26.0000;46.2223
27.0000;45.2055
28.0000;43.1769
29.0000;41.8310
30.0000;43.3652
31.0000;45.3981
32.0000;45.4398
33.0000;40.4667
34.0000;33.5827
35.0000;28.4051
36.0000;28.2041
37.0000;31.2642
38.0000;34.4391
39.0000;34.0621
40.0000;32.0730
41.0000;29.9062
42.0000;29.5846
43.0000;29.7481
44.0000;28.7956
45.0000;23.7861
46.0000;17.4488
47.0000;13.2933
48.0000;15.0174
49.0000;21.2256
50.0000;27.0542
51.0000;27.2948
52.0000;23.5619
53.0000;19.4275
54.0000;18.2381
55.0000;19.3857
56.0000;21.6713
57.0000;23.7918
58.0000;26.0672
59.0000;28.5674
60.0000;31.0956
61.0000;33.4632
62.0000;36.5240
63.0000;41.0526
64.0000;46.4710
65.0000;53.6342
66.0000;63.5328
67.0000;74.9661
68.0000;87.8051
69.0000;103.0036
70.0000;118.1772
71.0000;134.0101
72.0000;154.1520
73.0000;174.6305
74.0000;194.0865
75.0000;215.2247
76.0000;232.6763
77.0000;249.9646
78.0000;275.5863
79.0000;304.3666
80.0000;331.5729
81.0000;357.8796
82.0000;377.8188
83.0000;395.9410
84.0000;422.0780
85.0000;451.7436
86.0000;481.5539
87.0000;514.8851
88.0000;546.0364
89.0000;576.6304
90.0000;615.0560
91.0000;655.3583
92.0000;691.0112
93.0000;724.6070
94.0000;748.8931
95.0000;769.8763
96.0000;802.5877
97.0000;843.1371
98.0000;884.6323
99.0000;931.1171
100.0000;976.7601
101.0000;1014.6790
102.0000;1054.4880
103.0000;1088.6580
104.0000;1115.9570
105.0000;1146.3180
106.0000;1175.1690
107.0000;1201.1280
108.0000;1235.9710
109.0000;1273.4520
110.0000;1308.5350
111.0000;1346.1410
112.0000;1381.3410
113.0000;1409.2760
114.0000;1439.6750
115.0000;1467.6130
116.0000;1492.2870
117.0000;1522.6080
118.0000;1555.6660
119.0000;1587.2110
120.0000;1621.9570
121.0000;1655.9450
122.0000;1683.0220
123.0000;1705.2160
124.0000;1718.0250
125.0000;1725.1950
126.0000;1740.3870
127.0000;1763.1140
128.0000;1787.0080
129.0000;1811.3800
130.0000;1833.1730
131.0000;1850.1350
132.0000;1865.0170
133.0000;1875.0700
134.0000;1881.5320
135.0000;1892.2890
136.0000;1906.6950
137.0000;1920.9360
138.0000;1934.8990
139.0000;1946.9570
140.0000;1956.1540
141.0000;1966.9230
142.0000;1977.9800
143.0000;1986.9490
144.0000;1997.5130
145.0000;2007.3850
146.0000;2014.5700
147.0000;2020.3980
148.0000;2022.9110
149.0000;2023.6580
150.0000;2027.0960
151.0000;2033.1860
152.0000;2038.8910
153.0000;2043.3520
154.0000;2045.5300
155.0000;2046.8130
156.0000;2051.0970
157.0000;2057.6810
158.0000;2062.4260
159.0000;2062.0380
160.0000;2055.2730
161.0000;2046.3840
162.0000;2038.5250
163.0000;2033.6190
164.0000;2032.9220
165.0000;2037.5610
166.0000;2048.5340
167.0000;2060.4850
168.0000;2068.8650
169.0000;2071.4080
170.0000;2070.8270
171.0000;2070.6920
172.0000;2070.2530
173.0000;2070.1720
174.0000;2073.1040
175.0000;2078.5000
176.0000;2082.7550
177.0000;2082.5700
178.0000;2077.8670
179.0000;2073.0530
180.0000;2072.6650
181.0000;2077.0290
182.0000;2084.1150
183.0000;2093.8650
184.0000;2104.4930
185.0000;2111.9250
186.0000;2113.3170
187.0000;2107.7290
188.0000;2100.7290
189.0000;2099.7470
190.0000;2103.4290
191.0000;2108.1310
192.0000;2110.0830
193.0000;2109.8750
194.0000;2109.2400
195.0000;2110.2140
196.0000;2111.9070
197.0000;2113.1850
198.0000;2113.3910
199.0000;2112.4090
200.0000;2110.8400
201.0000;2109.0260
202.0000;2107.2600
203.0000;2106.4040
204.0000;2106.9820
205.0000;2109.0720
206.0000;2111.5950
207.0000;2113.3980
208.0000;2114.7800
209.0000;2116.1140
210.0000;2118.3200
211.0000;2120.2580
212.0000;2121.6710
213.0000;2122.4380
214.0000;2122.2540
215.0000;2121.9000
216.0000;2122.2390
217.0000;2122.7320
218.0000;2123.2880
219.0000;2122.5340
220.0000;2122.6350
221.0000;2125.9760
222.0000;2135.0580
223.0000;2146.6920
224.0000;2156.4250
225.0000;2161.3020
226.0000;2161.7850
227.0000;2161.4940
228.0000;2162.1820
229.0000;2163.4430
230.0000;2168.1950
231.0000;2179.2530
232.0000;2190.7650
233.0000;2196.3110
234.0000;2190.9820
235.0000;2180.6350
236.0000;2174.3970
237.0000;2176.8060
238.0000;2183.2030
239.0000;2188.7730
240.0000;2191.2990
241.0000;2192.5630
242.0000;2193.7490
243.0000;2194.8410
244.0000;2196.3890
245.0000;2200.5960
246.0000;2207.9990
247.0000;2214.6750
248.0000;2217.1880
249.0000;2213.8200
250.0000;2209.2900
251.0000;2209.4950
252.0000;2215.6440
253.0000;2222.4630
254.0000;2225.2330
255.0000;2222.9030
256.0000;2218.8650
257.0000;2216.5680
258.0000;2216.2660
259.0000;2217.5590
260.0000;2220.3650
261.0000;2224.4820
262.0000;2228.8230
263.0000;2232.4410
264.0000;2234.4100
265.0000;2234.7320
266.0000;2233.2280
267.0000;2230.2080
268.0000;2228.6800
269.0000;2231.7570
270.0000;2238.5400
271.0000;2246.1760
272.0000;2252.1130
273.0000;2256.3160
274.0000;2260.3360
275.0000;2266.2440
276.0000;2272.0170
277.0000;2278.2000
278.0000;2287.5350
279.0000;2295.6740
280.0000;2300.9760
281.0000;2301.9440
282.0000;2299.2620
283.0000;2298.1680
284.0000;2303.6430
285.0000;2310.5670
286.0000;2315.1480
287.0000;2314.9960
288.0000;2311.0900
289.0000;2305.7810
290.0000;2299.4970
291.0000;2294.6340
292.0000;2293.5190
293.0000;2297.9100
294.0000;2305.2900
295.0000;2311.5570
296.0000;2314.8850
297.0000;2316.7570
298.0000;2319.0080
299.0000;2321.4520
300.0000;2323.8530
301.0000;2327.2550
302.0000;2331.1300
303.0000;2335.7960
304.0000;2342.6250
305.0000;2350.6460
306.0000;2358.1660
307.0000;2365.6860
308.0000;2371.1890
309.0000;2373.3480
310.0000;2373.7770
311.0000;2370.7040
312.0000;2365.1750
313.0000;2357.2090
314.0000;2348.7400
315.0000;2344.8690
316.0000;2349.3330
317.0000;2360.9630
318.0000;2373.1140
319.0000;2380.3470
320.0000;2382.8550
321.0000;2383.3750
322.0000;2384.6200
323.0000;2384.4850
324.0000;2384.7400
325.0000;2386.3670
326.0000;2389.0170
327.0000;2393.1780
328.0000;2399.6940
329.0000;2406.1710
330.0000;2411.5030
331.0000;2414.5830
332.0000;2415.5520
333.0000;2416.4730
334.0000;2417.6120
335.0000;2419.1060
336.0000;2422.4900
337.0000;2427.6620
338.0000;2434.1950
339.0000;2442.5420
340.0000;2452.0480
341.0000;2460.4190
342.0000;2468.5350
343.0000;2474.4290
344.0000;2476.9520
345.0000;2477.9890
346.0000;2475.9460
347.0000;2472.4640
348.0000;2469.0680
349.0000;2466.4310
350.0000;2466.7820
351.0000;2472.6860
352.0000;2482.7470
353.0000;2491.3370
354.0000;2494.9140
355.0000;2493.5880
356.0000;2490.7760
357.0000;2489.7600
358.0000;2488.6700
359.0000;2487.7820
360.0000;2487.1110
361.0000;2487.0810
362.0000;2487.4910
363.0000;2487.8190
364.0000;2489.3490
365.0000;2493.5530
366.0000;2501.1990
367.0000;2508.5640
368.0000;2511.4850
369.0000;2508.1000
370.0000;2501.9780
371.0000;2498.5490
372.0000;2498.7920
373.0000;2501.1710
374.0000;2505.1040
375.0000;2510.0080
376.0000;2513.5560
377.0000;2512.6390
378.0000;2507.3250
379.0000;2502.0970
380.0000;2500.1340
381.0000;2501.9240
382.0000;2506.6800
383.0000;2513.9790
384.0000;2522.9390
385.0000;2532.0000
386.0000;2539.9700
387.0000;2545.2160
388.0000;2550.0790
389.0000;2556.6040
390.0000;2561.4500
391.0000;2564.6070
392.0000;2566.3880
393.0000;2565.5900
394.0000;2563.4570
395.0000;2559.9290
396.0000;2557.6150
397.0000;2560.4140
398.0000;2570.0590
399.0000;2581.7260
400.0000;2590.7180
401.0000;2595.4210
402.0000;2596.5240
403.0000;2596.5490
404.0000;2594.4130
405.0000;2591.9660
406.0000;2591.4340
407.0000;2592.9880
408.0000;2596.6950
409.0000;2602.4900
410.0000;2609.6840
411.0000;2617.5790
412.0000;2625.6510
413.0000;2632.5210
414.0000;2638.7690
415.0000;2646.2930
416.0000;2651.4840
417.0000;2654.0500
418.0000;2653.7380
419.0000;2650.4380
420.0000;2647.2470
421.0000;2645.4240
422.0000;2644.7030
423.0000;2645.3580
424.0000;2647.5940
425.0000;2651.2800
426.0000;2655.9160
427.0000;2660.9030
428.0000;2664.8270
429.0000;2667.6760
430.0000;2668.1270
431.0000;2666.6290
432.0000;2663.0860
433.0000;2658.5360
434.0000;2656.8800
435.0000;2662.7920
436.0000;2673.3070
437.0000;2681.4060
438.0000;2680.0670
439.0000;2674.1590
440.0000;2670.9930
441.0000;2677.1800
442.0000;2686.4710
443.0000;2692.7480
444.0000;2692.4820
445.0000;2689.7360
446.0000;2690.2890
447.0000;2695.8640
448.0000;2702.1430
449.0000;2706.2950
450.0000;2706.9460
451.0000;2707.0850
452.0000;2710.9240
453.0000;2717.3460
454.0000;2723.0750
455.0000;2726.9650
456.0000;2727.6790
457.0000;2726.3600
458.0000;2723.0450
459.0000;2719.3810
460.0000;2719.7540
461.0000;2729.9250
462.0000;2743.7640
463.0000;2752.9280
464.0000;2750.9250
465.0000;2743.1840
466.0000;2738.2170
467.0000;2739.6540
468.0000;2744.8220
469.0000;2751.9850
470.0000;2761.0180
471.0000;2769.7390
472.0000;2776.3510
473.0000;2779.1930
474.0000;2780.5970
475.0000;2785.1000
476.0000;2790.7010
477.0000;2795.4550
478.0000;2799.4110
479.0000;2800.9550
480.0000;2800.7000
481.0000;2799.5890
482.0000;2797.2280
483.0000;2795.5880
484.0000;2795.9450
485.0000;2797.7180
486.0000;2799.9960
487.0000;2802.2240
488.0000;2804.7640
489.0000;2808.0110
490.0000;2811.7050
491.0000;2815.0510
492.0000;2817.9560
493.0000;2819.7670
494.0000;2821.3810
495.0000;2824.8630
496.0000;2829.0840
497.0000;2832.6910
498.0000;2835.1720
499.0000;2835.9240
500.0000;2836.3000
501.0000;2837.4610
502.0000;2838.9920
503.0000;2842.1630
504.0000;2849.5280
505.0000;2855.7770
506.0000;2855.9900
507.0000;2846.7360
508.0000;2833.4240
509.0000;2823.4520
510.0000;2819.2150
511.0000;2821.5470
512.0000;2831.0460
513.0000;2847.5540
514.0000;2862.6620
515.0000;2867.6030
516.0000;2861.9520
517.0000;2854.0550
518.0000;2852.9700
519.0000;2855.7390
520.0000;2860.8850
521.0000;2866.7570
522.0000;2874.1790
523.0000;2883.6530
524.0000;2897.0710
525.0000;2907.3610
526.0000;2910.4890
527.0000;2902.8610
528.0000;2892.8430
529.0000;2892.3850
530.0000;2903.5340
531.0000;2918.2170
532.0000;2928.8160
533.0000;2934.7540
534.0000;2940.5650
535.0000;2952.3560
536.0000;2965.0700
537.0000;2975.6000
538.0000;2982.9790
539.0000;2985.5010
540.0000;2988.6250
541.0000;2995.4780
542.0000;3003.2020
543.0000;3012.2310
544.0000;3022.3380
545.0000;3031.4790
546.0000;3040.2830
547.0000;3046.5550
548.0000;3051.9730
549.0000;3062.2600
550.0000;3073.8160
551.0000;3082.4370
552.0000;3085.3570
553.0000;3082.2560
554.0000;3080.3000
555.0000;3087.5590
556.0000;3098.2540
557.0000;3106.8660
558.0000;3109.9790
559.0000;3109.8510
560.0000;3111.2160
561.0000;3115.3180
562.0000;3121.1580
563.0000;3130.2500
564.0000;3141.8000
565.0000;3150.6310
566.0000;3153.1080
567.0000;3147.4670
568.0000;3138.3790
569.0000;3130.1660
570.0000;3122.9210
571.0000;3118.5890
572.0000;3118.0810
573.0000;3121.1890
574.0000;3123.2530
575.0000;3120.8430
576.0000;3117.9410
577.0000;3117.4290
578.0000;3120.5510
579.0000;3125.3650
580.0000;3129.9160
581.0000;3133.4830
582.0000;3135.1130
583.0000;3134.2660
584.0000;3130.4690
585.0000;3126.2080
586.0000;3123.2410
587.0000;3121.9180
588.0000;3122.0340
589.0000;3124.6800
590.0000;3127.2440
591.0000;3125.0430
592.0000;3114.8280
593.0000;3103.6830
594.0000;3098.1740
595.0000;3101.3390
596.0000;3107.0110
597.0000;3107.3960
598.0000;3102.9900
599.0000;3097.4700
600.0000;3091.9650
601.0000;3088.2680
602.0000;3087.9680
603.0000;3094.2540
604.0000;3102.6950
605.0000;3105.9790
606.0000;3098.1220
607.0000;3086.6910
608.0000;3082.3320
609.0000;3089.1590
610.0000;3097.2200
611.0000;3095.0990
612.0000;3082.5770
613.0000;3070.1450
614.0000;3065.6910
615.0000;3069.5260
616.0000;3076.0250
617.0000;3080.4540
618.0000;3084.3460
619.0000;3087.2150
620.0000;3088.7870
621.0000;3088.9270
622.0000;3090.1590
623.0000;3093.5520
624.0000;3094.4180
625.0000;3088.1490
626.0000;3074.6270
627.0000;3062.6390
628.0000;3059.6790
629.0000;3065.8750
630.0000;3072.6570
631.0000;3072.2080
632.0000;3067.8140
633.0000;3062.6930
634.0000;3059.0810
635.0000;3055.9340
636.0000;3052.1110
637.0000;3047.5250
638.0000;3044.9170
639.0000;3046.8710
640.0000;3053.7600
641.0000;3059.1070
642.0000;3056.0400
643.0000;3045.8480
644.0000;3035.8080
645.0000;3030.9360
646.0000;3031.2120
647.0000;3035.0730
648.0000;3042.3580
649.0000;3050.3460
650.0000;3054.3880
651.0000;3052.5210
652.0000;3045.0710
653.0000;3032.8260
654.0000;3017.1990
655.0000;3005.2270
656.0000;3002.7610
657.0000;3009.9780
658.0000;3016.5000
659.0000;3010.9580
660.0000;3000.7790
661.0000;2993.1330
662.0000;2992.8260
663.0000;2995.0050
664.0000;2991.9650
665.0000;2981.6120
666.0000;2972.9590
667.0000;2974.9380
668.0000;2986.8810
669.0000;2997.3830
670.0000;2994.6250
671.0000;2980.8890
672.0000;2964.0390
673.0000;2947.8030
674.0000;2935.9360
675.0000;2931.3480
676.0000;2937.4180
677.0000;2948.5170
678.0000;2953.5360
679.0000;2949.9730
680.0000;2942.8010
681.0000;2935.5180
682.0000;2928.7060
683.0000;2922.9970
684.0000;2916.5960
685.0000;2913.6440
686.0000;2915.6360
687.0000;2923.9640
688.0000;2935.9090
689.0000;2946.1090
690.0000;2951.7620
691.0000;2952.8210
692.0000;2951.2380
693.0000;2946.1490
694.0000;2939.9970
695.0000;2935.9210
696.0000;2934.3470
697.0000;2934.5950
698.0000;2935.7260
699.0000;2938.3330
700.0000;2940.8290
701.0000;2942.3200
702.0000;2943.0760
703.0000;2943.6280
704.0000;2943.7860
705.0000;2943.7620
706.0000;2943.6380
707.0000;2943.8170
708.0000;2945.6260
709.0000;2951.1310
710.0000;2957.9880
711.0000;2963.2320
712.0000;2965.5000
713.0000;2963.7880
714.0000;2958.7030
715.0000;2950.4370
716.0000;2942.7360
717.0000;2940.2260
718.0000;2943.7620
719.0000;2948.2980
720.0000;2947.5090
721.0000;2944.2350
722.0000;2942.4740
723.0000;2945.4860
724.0000;2950.6020
725.0000;2955.0380
726.0000;2957.4840
727.0000;2957.6660
728.0000;2955.4900
729.0000;2950.9350
730.0000;2947.2190
731.0000;2947.8870
732.0000;2952.2810
733.0000;2957.0680
734.0000;2958.7540
735.0000;2959.2200
736.0000;2960.7200
737.0000;2964.4350
738.0000;2968.1990
739.0000;2971.8510
740.0000;2974.4610
741.0000;2974.2410
742.0000;2968.5780
743.0000;2959.7790
744.0000;2955.3000
745.0000;2964.0410
746.0000;2978.1880
747.0000;2986.1710
748.0000;2979.9350
749.0000;2969.4310
750.0000;2966.0920
751.0000;2972.3340
752.0000;2981.3650
753.0000;2986.7730
754.0000;2988.5200
755.0000;2987.8000
756.0000;2986.6050
757.0000;2983.3650
758.0000;2978.7770
759.0000;2972.8570
760.0000;2969.0030
761.0000;2971.2910
762.0000;2980.8410
763.0000;2989.8240
764.0000;2989.3850
765.0000;2980.5160
766.0000;2971.1000
767.0000;2968.7050
768.0000;2970.4450
769.0000;2972.4630
770.0000;2972.1290
771.0000;2972.7830
772.0000;2976.7960
773.0000;2984.2650
774.0000;2990.9320
775.0000;2992.6420
776.0000;2989.1500
777.0000;2984.7000
778.0000;2981.7600
779.0000;2981.1490
780.0000;2984.9000
781.0000;2995.9870
782.0000;3005.9290
783.0000;3005.5250
784.0000;2992.4000
785.0000;2977.4270
786.0000;2972.3920
787.0000;2976.7690
788.0000;2984.5640
789.0000;2991.1060
790.0000;2997.4220
791.0000;3002.5380
792.0000;3004.6050
793.0000;3006.1640
794.0000;3012.8010
795.0000;3024.0220
796.0000;3032.3510
797.0000;3032.3560
798.0000;3024.9430
799.0000;3019.2740
800.0000;3023.1830
801.0000;3030.2590
802.0000;3034.1760
803.0000;3031.6320
804.0000;3027.2920
805.0000;3026.7600
806.0000;3029.8040
807.0000;3032.6560
808.0000;3031.3330
809.0000;3027.7400
810.0000;3025.7180
811.0000;3028.6990
812.0000;3032.3420
813.0000;3031.2040
814.0000;3023.3290
815.0000;3014.6500
816.0000;3010.4300
817.0000;3011.4790
818.0000;3015.3820
819.0000;3019.7660
820.0000;3024.6510
821.0000;3027.4020
822.0000;3026.3290
823.0000;3022.9230
824.0000;3020.1790
825.0000;3018.7850
826.0000;3018.2890
827.0000;3018.2770
828.0000;3019.2330
829.0000;3020.8910
830.0000;3022.7720
831.0000;3024.8880
832.0000;3027.4400
833.0000;3030.7050
834.0000;3032.2360
835.0000;3030.0230
836.0000;3024.2360
837.0000;3018.6070
838.0000;3016.5450
839.0000;3018.2660
840.0000;3021.9170
841.0000;3026.8160
842.0000;3032.1470
843.0000;3036.4860
844.0000;3038.6440
845.0000;3038.4780
846.0000;3036.9090
847.0000;3033.4780
848.0000;3029.6820
849.0000;3025.8790
850.0000;3023.8920
851.0000;3025.2280
852.0000;3030.8460
853.0000;3038.8860
854.0000;3047.5780
855.0000;3054.7650
856.0000;3057.6120
857.0000;3052.1020
858.0000;3041.1780
859.0000;3035.4970
860.0000;3043.4060
861.0000;3056.5730
862.0000;3063.8780
863.0000;3061.8970
864.0000;3059.1630
865.0000;3065.8310
866.0000;3078.7570
867.0000;3089.9460
868.0000;3094.1950
869.0000;3092.4350
870.0000;3090.1530
871.0000;3089.0970
872.0000;3088.9540
873.0000;3091.6580
874.0000;3097.0520
875.0000;3102.7040
876.0000;3107.5550
877.0000;3110.1860
878.0000;3109.9520
879.0000;3105.3100
880.0000;3100.5890
881.0000;3102.5050
882.0000;3112.6910
883.0000;3124.9110
884.0000;3133.7810
885.0000;3138.2440
886.0000;3140.6330
887.0000;3142.9330
888.0000;3143.8640
889.0000;3146.4430
890.0000;3151.2550
891.0000;3157.7910
892.0000;3167.1630
893.0000;3177.2530
894.0000;3184.8000
895.0000;3186.9420
896.0000;3185.6020
897.0000;3189.0420
898.0000;3201.1370
899.0000;3215.0650
900.0000;3226.2000
901.0000;3232.0840
902.0000;3235.6820
903.0000;3242.5250
904.0000;3248.4360
905.0000;3252.8770
906.0000;3255.2360
907.0000;3256.9800
908.0000;3263.3920
909.0000;3274.2420
910.0000;3283.6650
911.0000;3286.6750
912.0000;3284.1110
913.0000;3284.5380
914.0000;3294.6410
915.0000;3307.5680
916.0000;3318.0270
917.0000;3323.0290
918.0000;3325.3800
919.0000;3331.3500
920.0000;3337.2270
921.0000;3339.5550
922.0000;3334.3050
923.0000;3327.0680
924.0000;3328.3650
925.0000;3341.9650
926.0000;3360.1630
927.0000;3376.5320
928.0000;3388.2030
929.0000;3394.5000
930.0000;3396.8840
931.0000;3394.5530
932.0000;3396.8990
933.0000;3408.2150
934.0000;3419.3950
935.0000;3423.3930
936.0000;3418.6700
937.0000;3412.4330
938.0000;3411.5410
939.0000;3413.8540
940.0000;3417.7800
941.0000;3422.9430
942.0000;3427.7620
943.0000;3430.3330
944.0000;3429.6790
945.0000;3426.7720
946.0000;3423.5230
947.0000;3419.5900
948.0000;3415.7530
949.0000;3412.8860
950.0000;3411.2240
951.0000;3409.6860
952.0000;3408.8480
953.0000;3408.7000
954.0000;3407.6550
955.0000;3407.3890
956.0000;3409.5540
957.0000;3415.4810
958.0000;3421.8190
959.0000;3425.0170
960.0000;3423.4890
961.0000;3419.9350
962.0000;3418.1910
963.0000;3416.9060
964.0000;3414.7160
965.0000;3410.0410
966.0000;3407.0160
967.0000;3409.7380
968.0000;3419.2700
969.0000;3429.0170
970.0000;3432.5630
971.0000;3431.3710
972.0000;3431.9890
973.0000;3437.8090
974.0000;3446.8740
975.0000;3460.7640
976.0000;3477.1000
977.0000;3489.1580
978.0000;3489.6400
979.0000;3480.7620
980.0000;3477.8910
981.0000;3491.8650
982.0000;3511.1880
983.0000;3523.9250
984.0000;3526.6540
985.0000;3525.2410
986.0000;3528.3900
987.0000;3531.6150
988.0000;3533.3270
989.0000;3532.6130
990.0000;3530.2310
991.0000;3528.9140
992.0000;3529.0220
993.0000;3528.7450
994.0000;3525.9300
995.0000;3522.2260
996.0000;3520.3780
997.0000;3522.1060
998.0000;3525.7280
999.0000;3528.4330
1000.0000;3529.6530
1001.0000;3529.5750
1002.0000;3528.0940
1003.0000;3525.7950
1004.0000;3525.3680
1005.0000;3528.8340
1006.0000;3532.5800
1007.0000;3531.3410
1008.0000;3525.2630
1009.0000;3520.8700
1010.0000;3524.0740
1011.0000;3532.8250
1012.0000;3543.1440
1013.0000;3552.2240
1014.0000;3559.5610
1015.0000;3566.4410
1016.0000;3570.8540
1017.0000;3574.2960
1018.0000;3580.5720
1019.0000;3586.2210
1020.0000;3591.0540
1021.0000;3594.5400
1022.0000;3595.5520
1023.0000;3594.5600
1024.0000;3591.7350
1025.0000;3591.5180
1026.0000;3599.5460
1027.0000;3610.0630
1028.0000;3614.8660
1029.0000;3609.8250
1030.0000;3602.5040
1031.0000;3602.4450
1032.0000;3607.9680
1033.0000;3612.3890
1034.0000;3608.8640
1035.0000;3604.4630
1036.0000;3607.6220
1037.0000;3621.0100
1038.0000;3635.4030
1039.0000;3642.6650
1040.0000;3642.3520
1041.0000;3640.5980
1042.0000;3641.0030
1043.0000;3642.5240
1044.0000;3647.3110
1045.0000;3655.4840
1046.0000;3665.6790
1047.0000;3677.9110
1048.0000;3689.3240
1049.0000;3699.4200
1050.0000;3707.0370
1051.0000;3712.1580
1052.0000;3720.4900
1053.0000;3730.4290
1054.0000;3738.0030
1055.0000;3742.4660
1056.0000;3742.7180
1057.0000;3743.5720
1058.0000;3746.4740
1059.0000;3751.3120
1060.0000;3760.5240
1061.0000;3772.3660
1062.0000;3783.3440
1063.0000;3792.5420
1064.0000;3797.0660
1065.0000;3799.2280
1066.0000;3798.3950
1067.0000;3796.7900
1068.0000;3798.4390
1069.0000;3803.1790
1070.0000;3811.7080
1071.0000;3826.5810
1072.0000;3839.2450
1073.0000;3840.6940
1074.0000;3828.3870
1075.0000;3817.1550
1076.0000;3822.8300
1077.0000;3839.3990
1078.0000;3855.2830
1079.0000;3863.7640
1080.0000;3868.6910
1081.0000;3875.7260
1082.0000;3883.1370
1083.0000;3890.5900
1084.0000;3901.2350
1085.0000;3910.5650
1086.0000;3918.5440
1087.0000;3923.6140
1088.0000;3926.3470
1089.0000;3930.4330
1090.0000;3934.2920
1091.0000;3939.6650
1092.0000;3948.3080
1093.0000;3956.4050
1094.0000;3962.8960
1095.0000;3965.8270
1096.0000;3965.1260
1097.0000;3964.0200
1098.0000;3959.5990
1099.0000;3951.4440
1100.0000;3939.5760
1101.0000;3927.1130
1102.0000;3916.4470
1103.0000;3909.6530
1104.0000;3903.7050
1105.0000;3892.5550
1106.0000;3883.6400
1107.0000;3879.8310
1108.0000;3883.5980
1109.0000;3886.9910
1110.0000;3879.7680
1111.0000;3865.1520
1112.0000;3850.8130
1113.0000;3840.0530
1114.0000;3834.3700
1115.0000;3833.5890
1116.0000;3838.1570
1117.0000;3838.0680
1118.0000;3822.0390
1119.0000;3797.4980
1120.0000;3775.8060
1121.0000;3762.4110
1122.0000;3753.6190
1123.0000;3741.9230
1124.0000;3731.2970
1125.0000;3718.3640
1126.0000;3699.6160
1127.0000;3683.1670
1128.0000;3670.6390
1129.0000;3666.3250
1130.0000;3665.8750
1131.0000;3660.0460
1132.0000;3655.7350
1133.0000;3655.5640
1134.0000;3662.2310
1135.0000;3666.2060
1136.0000;3656.0320
1137.0000;3634.6770
1138.0000;3613.6250
1139.0000;3600.7670
1140.0000;3594.9170
1141.0000;3587.7170
1142.0000;3580.5020
1143.0000;3572.8890
1144.0000;3560.2140
1145.0000;3547.7650
1146.0000;3537.3290
1147.0000;3531.8180
1148.0000;3528.7300
1149.0000;3520.4680
1150.0000;3510.1380
1151.0000;3502.4560
1152.0000;3498.2950
1153.0000;3499.3970
1154.0000;3503.3650
1155.0000;3509.6020
1156.0000;3512.7840
1157.0000;3507.4400
1158.0000;3495.0250
1159.0000;3481.4870
1160.0000;3469.3540
1161.0000;3459.4700
1162.0000;3448.2500
1163.0000;3440.4010
1164.0000;3436.6630
1165.0000;3437.8360
1166.0000;3441.8020
1167.0000;3439.4800
1168.0000;3430.5650
1169.0000;3422.3660
1170.0000;3420.4970
1171.0000;3424.1600
1172.0000;3429.4680
1173.0000;3435.0480
1174.0000;3437.6320
1175.0000;3431.7880
1176.0000;3419.5740
1177.0000;3411.3610
1178.0000;3414.9220
1179.0000;3422.3840
1180.0000;3421.9210
1181.0000;3413.4890
1182.0000;3405.3000
1183.0000;3404.8130
1184.0000;3408.3250
1185.0000;3410.1710
1186.0000;3408.5150
1187.0000;3403.8210
1188.0000;3393.4040
1189.0000;3381.5650
1190.0000;3375.8850
1191.0000;3380.8760
1192.0000;3391.7180
1193.0000;3399.4610
1194.0000;3403.6610
1195.0000;3406.2260
1196.0000;3409.0540
1197.0000;3410.0750
1198.0000;3411.6600
1199.0000;3413.4160
1200.0000;3411.5680
1201.0000;3403.9410
1202.0000;3392.0210
1203.0000;3379.4270
1204.0000;3368.1800
1205.0000;3363.8450
1206.0000;3369.0360
1207.0000;3383.9110
1208.0000;3398.4100
1209.0000;3406.6380
1210.0000;3407.0790
1211.0000;3398.6650
1212.0000;3382.0430
1213.0000;3372.2330
1214.0000;3385.7260
1215.0000;3408.1890
1216.0000;3416.3520
1217.0000;3403.6140
1218.0000;3387.4480
1219.0000;3385.8660
1220.0000;3394.2420
1221.0000;3403.5420
1222.0000;3410.0660
1223.0000;3412.7780
1224.0000;3410.2630
1225.0000;3402.0860
1226.0000;3393.0450
1227.0000;3384.9980
1228.0000;3380.8780
1229.0000;3383.7940
1230.0000;3393.5500
1231.0000;3398.5760
1232.0000;3384.9530
1233.0000;3366.2760
1234.0000;3361.6080
1235.0000;3376.8820
1236.0000;3393.9060
1237.0000;3395.2300
1238.0000;3385.5520
1239.0000;3374.7450
1240.0000;3366.7220
1241.0000;3363.0380
1242.0000;3365.9540
1243.0000;3375.4280
1244.0000;3384.5920
1245.0000;3388.9070
1246.0000;3389.9750
1247.0000;3391.5680
1248.0000;3392.0600
1249.0000;3389.1250
1250.0000;3379.9160
1251.0000;3370.7240
1252.0000;3370.2060
1253.0000;3380.5240
1254.0000;3391.0630
1255.0000;3391.4260
1256.0000;3385.4230
1257.0000;3380.3440
1258.0000;3378.5180
1259.0000;3377.7920
1260.0000;3376.8730
1261.0000;3376.2390
1262.0000;3374.5610
1263.0000;3370.9790
1264.0000;3368.1090
1265.0000;3368.9350
1266.0000;3372.4190
1267.0000;3373.3230
1268.0000;3367.3760
1269.0000;3360.5200
1270.0000;3358.5960
1271.0000;3363.0480
1272.0000;3370.4860
1273.0000;3378.6820
1274.0000;3386.6140
1275.0000;3392.9170
1276.0000;3395.9790
1277.0000;3397.8360
1278.0000;3402.6200
1279.0000;3407.2380
1280.0000;3411.8440
1281.0000;3415.4240
1282.0000;3417.7530
1283.0000;3420.5150
1284.0000;3421.8950
1285.0000;3421.6530
1286.0000;3419.3150
1287.0000;3418.3020
1288.0000;3424.2300
1289.0000;3433.9100
1290.0000;3439.9450
1291.0000;3437.7770
1292.0000;3431.0590
1293.0000;3426.4450
1294.0000;3423.7080
1295.0000;3421.0110
1296.0000;3417.5700
1297.0000;3414.6230
1298.0000;3411.0480
1299.0000;3408.0650
1300.0000;3406.8410
1301.0000;3407.5290
1302.0000;3410.2850
1303.0000;3413.2560
1304.0000;3415.7320
1305.0000;3417.7560
1306.0000;3419.7920
1307.0000;3420.6830
1308.0000;3420.7290
1309.0000;3419.7400
1310.0000;3419.2480
1311.0000;3420.7490
1312.0000;3423.9480
1313.0000;3428.1310
1314.0000;3432.3750
1315.0000;3438.0350
1316.0000;3449.6050
1317.0000;3460.8090
1318.0000;3464.1710
1319.0000;3454.5100
1320.0000;3441.4580
1321.0000;3440.0230
1322.0000;3446.8980
1323.0000;3449.3340
1324.0000;3439.3710
1325.0000;3428.7210
1326.0000;3427.9640
1327.0000;3436.7250
1328.0000;3445.5030
1329.0000;3447.2670
1330.0000;3446.3180
1331.0000;3447.6750
1332.0000;3450.4220
1333.0000;3451.4530
1334.0000;3447.6140
1335.0000;3444.3150
1336.0000;3450.1220
1337.0000;3464.3710
1338.0000;3473.1600
1339.0000;3464.7330
1340.0000;3449.5080
1341.0000;3443.5730
1342.0000;3450.7780
1343.0000;3459.3000
1344.0000;3459.1560
1345.0000;3455.5200
1346.0000;3454.5680
1347.0000;3457.4980
1348.0000;3458.0290
1349.0000;3450.1380
1350.0000;3438.8820
1351.0000;3432.3510
1352.0000;3433.5390
1353.0000;3435.6320
1354.0000;3429.8200
1355.0000;3421.3730
1356.0000;3415.8550
1357.0000;3415.8400
1358.0000;3420.0110
1359.0000;3426.8640
1360.0000;3434.5230
1361.0000;3437.7020
1362.0000;3433.6050
1363.0000;3428.0830
1364.0000;3428.6770
1365.0000;3433.1390
1366.0000;3436.8310
1367.0000;3437.6610
1368.0000;3436.7190
1369.0000;3434.9780
1370.0000;3432.4760
1371.0000;3430.6460
1372.0000;3430.5340
1373.0000;3430.5670
1374.0000;3428.6930
1375.0000;3425.6010
1376.0000;3422.2160
1377.0000;3418.9060
1378.0000;3417.4580
1379.0000;3418.5230
1380.0000;3422.3900
1381.0000;3426.3120
1382.0000;3427.8890
1383.0000;3431.0160
1384.0000;3441.5430
1385.0000;3455.6550
1386.0000;3463.7960
1387.0000;3460.2810
1388.0000;3449.7980
1389.0000;3440.2900
1390.0000;3433.3470
1391.0000;3431.4480
1392.0000;3437.1480
1393.0000;3445.4260
1394.0000;3448.2240
1395.0000;3445.7290
1396.0000;3444.2100
1397.0000;3448.1850
1398.0000;3451.3370
1399.0000;3446.6990
1400.0000;3436.6090
1401.0000;3431.6460
1402.0000;3438.9860
1403.0000;3450.5590
1404.0000;3456.0590
1405.0000;3455.2500
1406.0000;3453.7780
1407.0000;3454.5310
1408.0000;3456.5280
1409.0000;3461.2580
1410.0000;3467.4880
1411.0000;3472.0000
1412.0000;3472.0910
1413.0000;3471.3590
1414.0000;3477.4830
1415.0000;3487.1070
1416.0000;3490.2900
1417.0000;3479.9400
1418.0000;3466.5650
1419.0000;3464.1850
1420.0000;3472.2720
1421.0000;3478.3610
1422.0000;3474.9380
1423.0000;3470.7890
1424.0000;3474.0690
1425.0000;3483.7000
1426.0000;3494.6530
1427.0000;3504.7360
1428.0000;3509.9160
1429.0000;3508.3720
1430.0000;3499.1990
1431.0000;3488.6240
1432.0000;3480.3130
1433.0000;3475.4420
1434.0000;3474.0710
1435.0000;3477.5800
1436.0000;3482.4650
1437.0000;3486.7180
1438.0000;3487.9650
1439.0000;3483.0790
1440.0000;3473.0640
1441.0000;3463.0200
1442.0000;3456.3950
1443.0000;3454.7050
1444.0000;3458.5170
1445.0000;3467.1540
1446.0000;3471.8470
1447.0000;3468.2550
1448.0000;3463.7820
1449.0000;3468.4020
1450.0000;3476.4910
1451.0000;3476.9050
1452.0000;3464.4520
1453.0000;3452.7160
1454.0000;3457.6530
1455.0000;3472.0550
1456.0000;3479.7400
1457.0000;3473.8650
1458.0000;3463.0290
1459.0000;3454.4590
1460.0000;3448.3260
1461.0000;3443.4550
1462.0000;3440.8950
1463.0000;3442.7030
1464.0000;3447.0020
1465.0000;3455.6430
1466.0000;3468.6180
1467.0000;3484.1840
1468.0000;3492.3000
1469.0000;3484.5640
1470.0000;3467.1650
1471.0000;3456.3300
1472.0000;3457.0140
1473.0000;3461.5350
1474.0000;3462.3220
1475.0000;3464.4380
1476.0000;3470.2920
1477.0000;3478.9820
1478.0000;3485.4980
1479.0000;3486.2630
1480.0000;3482.3720
1481.0000;3479.2740
1482.0000;3476.6570
1483.0000;3472.6040
1484.0000;3464.9470
1485.0000;3459.3540
1486.0000;3460.3030
1487.0000;3467.6360
1488.0000;3473.8280
1489.0000;3473.6350
1490.0000;3470.4800
1491.0000;3469.6790
1492.0000;3468.9880
1493.0000;3463.2630
1494.0000;3449.0500
1495.0000;3437.6660
1496.0000;3438.8070
1497.0000;3450.4510
1498.0000;3459.5500
1499.0000;3459.4760
1500.0000;3456.9080
1501.0000;3458.4510
1502.0000;3460.8020
1503.0000;3460.4980
1504.0000;3456.3470
1505.0000;3454.1610
1506.0000;3460.0840
1507.0000;3469.1220
1508.0000;3474.0650
1509.0000;3472.0170
1510.0000;3467.2950
1511.0000;3462.6670
1512.0000;3459.5220
1513.0000;3460.4700
1514.0000;3466.4120
1515.0000;3474.3510
1516.0000;3482.3070
1517.0000;3488.0250
1518.0000;3489.5880
1519.0000;3486.1330
1520.0000;3482.2630
1521.0000;3481.3340
1522.0000;3482.3790
1523.0000;3485.0130
1524.0000;3489.0840
1525.0000;3492.6820
1526.0000;3494.3790
1527.0000;3495.8070
1528.0000;3501.2630
1529.0000;3506.5990
1530.0000;3505.4690
1531.0000;3495.5330
1532.0000;3486.2410
1533.0000;3487.9140
1534.0000;3496.8720
1535.0000;3504.0550
1536.0000;3506.8470
1537.0000;3507.9680
1538.0000;3509.8760
1539.0000;3510.4320
1540.0000;3510.0060
1541.0000;3508.7590
1542.0000;3509.1080
1543.0000;3513.5830
1544.0000;3518.5230
1545.0000;3519.7680
1546.0000;3517.1410
1547.0000;3514.8530
1548.0000;3515.4610
1549.0000;3516.4430
1550.0000;3516.4750
1551.0000;3514.9350
1552.0000;3510.0730
1553.0000;3501.1980
1554.0000;3494.5050
1555.0000;3496.7160
1556.0000;3503.6160
1557.0000;3502.6120
1558.0000;3491.0120
1559.0000;3482.3930
1560.0000;3490.3760
1561.0000;3502.6760
1562.0000;3499.6750
1563.0000;3481.0670
1564.0000;3467.5190
1565.0000;3473.8940
1566.0000;3487.7850
1567.0000;3492.2800
1568.0000;3488.4370
1569.0000;3485.5330
1570.0000;3488.0990
1571.0000;3490.9640
1572.0000;3491.1900
1573.0000;3488.3100
1574.0000;3482.5880
1575.0000;3474.4210
1576.0000;3466.4350
1577.0000;3459.1780
1578.0000;3455.9530
1579.0000;3456.5600
1580.0000;3461.6060
1581.0000;3467.0040
1582.0000;3470.4440
1583.0000;3468.8120
1584.0000;3457.2450
1585.0000;3439.0410
1586.0000;3428.9510
1587.0000;3436.2800
1588.0000;3453.2540
1589.0000;3467.5720
1590.0000;3477.4550
1591.0000;3480.9920
1592.0000;3475.7490
1593.0000;3468.2550
1594.0000;3468.6640
1595.0000;3472.7950
1596.0000;3474.9200
1597.0000;3473.9220
1598.0000;3472.3570
1599.0000;3472.1700
1600.0000;3472.0780
1601.0000;3470.5960
1602.0000;3468.4450
1603.0000;3468.1820
1604.0000;3471.4150
1605.0000;3475.4900
1606.0000;3476.8330
1607.0000;3476.4020
1608.0000;3478.4570
1609.0000;3484.1810
1610.0000;3488.3620
1611.0000;3487.4550
1612.0000;3482.1570
1613.0000;3475.7600
1614.0000;3469.4130
1615.0000;3464.8360
1616.0000;3462.8220
1617.0000;3463.5680
1618.0000;3463.3420
1619.0000;3463.4360
1620.0000;3465.8790
1621.0000;3471.2920
1622.0000;3477.2980
1623.0000;3480.7870
1624.0000;3482.4560
1625.0000;3486.4670
1626.0000;3492.9810
1627.0000;3499.7280
1628.0000;3508.4030
1629.0000;3512.6600
1630.0000;3509.0010
1631.0000;3497.4000
1632.0000;3486.4050
1633.0000;3482.2830
1634.0000;3483.6290
1635.0000;3488.2880
1636.0000;3495.2320
1637.0000;3498.5680
1638.0000;3495.1940
1639.0000;3489.9960
1640.0000;3488.9480
1641.0000;3489.0940
1642.0000;3485.6770
1643.0000;3479.5260
1644.0000;3479.0930
1645.0000;3492.1210
1646.0000;3504.3320
1647.0000;3497.0470
1648.0000;3476.2210
1649.0000;3466.2370
1650.0000;3479.9190
1651.0000;3497.5820
1652.0000;3503.5540
1653.0000;3498.7490
1654.0000;3486.2700
1655.0000;3468.2520
1656.0000;3453.5910
1657.0000;3450.3810
1658.0000;3455.9740
1659.0000;3462.6560
1660.0000;3468.8290
1661.0000;3467.9580
1662.0000;3456.0560
1663.0000;3442.3570
1664.0000;3434.5040
1665.0000;3433.5000
1666.0000;3435.0540
1667.0000;3439.2250
1668.0000;3443.2570
1669.0000;3443.4380
1670.0000;3442.4330
1671.0000;3444.4250
1672.0000;3447.9260
1673.0000;3449.0750
1674.0000;3446.1870
1675.0000;3441.1670
1676.0000;3435.8150
1677.0000;3431.4490
1678.0000;3429.8700
1679.0000;3431.9500
1680.0000;3433.9360
1681.0000;3433.7630
1682.0000;3429.9980
1683.0000;3417.7200
1684.0000;3403.2240
1685.0000;3401.1010
1686.0000;3419.8740
1687.0000;3439.0830
1688.0000;3436.7920
1689.0000;3422.8370
1690.0000;3415.4620
1691.0000;3417.7460
1692.0000;3419.3000
1693.0000;3413.6770
1694.0000;3407.4130
1695.0000;3405.5140
1696.0000;3407.5090
1697.0000;3408.2070
1698.0000;3405.7530
1699.0000;3405.6000
1700.0000;3413.5910
1701.0000;3422.7060
1702.0000;3424.4420
1703.0000;3416.9320
1704.0000;3405.2110
1705.0000;3392.1020
1706.0000;3382.7870
1707.0000;3383.8960
1708.0000;3393.2090
1709.0000;3396.9370
1710.0000;3391.0490
1711.0000;3382.2000
1712.0000;3372.8190
1713.0000;3368.1760
1714.0000;3374.3820
1715.0000;3390.0310
1716.0000;3402.2810
1717.0000;3404.2400
1718.0000;3398.3120
1719.0000;3387.6120
1720.0000;3374.9200
1721.0000;3368.7070
1722.0000;3371.6900
1723.0000;3375.4590
1724.0000;3372.8000
1725.0000;3371.1670
1726.0000;3376.5230
1727.0000;3386.8890
1728.0000;3395.4840
1729.0000;3399.4740
1730.0000;3400.5530
1731.0000;3402.1650
1732.0000;3400.9650
1733.0000;3397.1220
1734.0000;3391.2630
1735.0000;3386.5940
1736.0000;3385.2470
1737.0000;3385.8540
1738.0000;3386.0200
1739.0000;3386.0420
1740.0000;3383.5880
1741.0000;3379.1610
1742.0000;3378.0040
1743.0000;3384.7000
1744.0000;3391.4570
1745.0000;3388.6230
1746.0000;3379.7500
1747.0000;3375.8470
1748.0000;3380.8040
1749.0000;3387.3140
1750.0000;3389.9610
1751.0000;3390.5580
1752.0000;3391.6680
1753.0000;3392.0870
1754.0000;3390.3190
1755.0000;3385.6790
1756.0000;3383.0890
1757.0000;3390.0500
1758.0000;3398.0960
1759.0000;3393.6310
1760.0000;3376.1850
1761.0000;3362.6030
1762.0000;3362.3690
1763.0000;3367.2320
1764.0000;3365.1690
1765.0000;3361.1430
1766.0000;3360.3890
1767.0000;3363.5520
1768.0000;3363.2200
1769.0000;3352.9290
1770.0000;3342.1440
1771.0000;3338.8500
1772.0000;3344.0830
1773.0000;3352.7120
1774.0000;3363.0440
1775.0000;3370.8060
1776.0000;3373.3380
1777.0000;3370.3840
1778.0000;3367.6600
1779.0000;3363.8020
1780.0000;3357.3140
1781.0000;3348.0750
1782.0000;3340.2000
1783.0000;3333.5500
1784.0000;3332.5550
1785.0000;3337.6660
1786.0000;3347.8150
1787.0000;3351.8550
1788.0000;3343.4140
1789.0000;3332.4830
1790.0000;3328.2050
1791.0000;3329.6420
1792.0000;3333.4540
1793.0000;3338.7740
1794.0000;3341.0640
1795.0000;3337.3020
1796.0000;3330.5930
1797.0000;3323.4470
1798.0000;3318.5220
1799.0000;3318.6790
1800.0000;3324.5700
1801.0000;3328.2830
1802.0000;3323.6820
1803.0000;3315.9940
1804.0000;3310.7430
1805.0000;3307.1210
1806.0000;3299.6410
1807.0000;3289.3170
1808.0000;3285.6120
1809.0000;3296.0920
1810.0000;3307.2180
1811.0000;3298.7180
1812.0000;3278.2570
1813.0000;3268.2550
1814.0000;3275.6500
1815.0000;3287.6200
1816.0000;3294.5670
1817.0000;3297.4810
1818.0000;3296.8680
1819.0000;3291.1390
1820.0000;3282.7890
1821.0000;3273.0960
1822.0000;3266.3350
1823.0000;3266.2670
1824.0000;3269.0420
1825.0000;3264.5270
1826.0000;3256.5650
1827.0000;3254.3290
1828.0000;3260.9230
1829.0000;3270.8020
1830.0000;3279.9230
1831.0000;3284.9080
1832.0000;3282.1060
1833.0000;3272.9100
1834.0000;3269.5390
1835.0000;3276.8130
1836.0000;3284.6720
1837.0000;3286.3670
1838.0000;3282.3220
1839.0000;3271.2900
1840.0000;3257.9190
1841.0000;3256.1220
1842.0000;3271.7130
1843.0000;3286.3490
1844.0000;3283.4440
1845.0000;3272.5910
1846.0000;3268.7520
1847.0000;3269.1450
1848.0000;3262.9270
1849.0000;3247.5430
1850.0000;3239.7640
1851.0000;3252.8460
1852.0000;3273.9750
1853.0000;3283.2180
1854.0000;3280.2230
1855.0000;3275.9120
1856.0000;3273.1650
1857.0000;3271.8600
1858.0000;3273.4820
1859.0000;3277.5840
1860.0000;3283.9170
1861.0000;3289.5540
1862.0000;3288.6690
1863.0000;3279.4300
1864.0000;3272.7330
1865.0000;3279.5820
1866.0000;3286.9010
1867.0000;3276.4330
1868.0000;3256.5850
1869.0000;3249.4810
1870.0000;3261.8600
1871.0000;3275.6050
1872.0000;3276.1880
1873.0000;3273.8980
1874.0000;3280.6640
1875.0000;3291.1170
1876.0000;3295.6720
1877.0000;3291.9400
1878.0000;3287.3580
1879.0000;3287.2300
1880.0000;3288.5210
1881.0000;3288.3710
1882.0000;3288.8310
1883.0000;3293.6830
1884.0000;3301.9140
1885.0000;3306.2500
1886.0000;3302.2080
1887.0000;3294.7090
1888.0000;3290.3750
1889.0000;3288.3140
1890.0000;3285.8250
1891.0000;3284.1940
1892.0000;3286.1470
1893.0000;3293.0910
1894.0000;3300.0820
1895.0000;3302.4320
1896.0000;3301.6000
1897.0000;3301.8890
1898.0000;3303.7060
1899.0000;3309.5890
1900.0000;3320.5410
1901.0000;3326.7770
1902.0000;3320.6280
1903.0000;3307.0980
1904.0000;3295.7460
1905.0000;3289.2830
1906.0000;3285.9600
1907.0000;3286.8300
1908.0000;3290.9850
1909.0000;3296.2670
1910.0000;3301.0130
1911.0000;3300.8120
1912.0000;3297.7360
1913.0000;3299.8710
1914.0000;3308.2410
1915.0000;3315.7140
1916.0000;3318.0720
1917.0000;3316.6530
1918.0000;3315.4410
1919.0000;3312.7810
1920.0000;3308.5250
1921.0000;3303.7340
1922.0000;3300.2420
1923.0000;3299.6120
1924.0000;3298.8550
1925.0000;3292.2370
1926.0000;3285.8590
1927.0000;3285.3960
1928.0000;3290.9040
1929.0000;3294.7680
1930.0000;3293.7460
1931.0000;3294.2720
1932.0000;3301.0280
1933.0000;3309.8780
1934.0000;3318.3220
1935.0000;3322.6970
1936.0000;3319.9010
1937.0000;3308.8100
1938.0000;3297.5800
1939.0000;3291.0640
1940.0000;3291.5930
1941.0000;3300.3430
1942.0000;3312.7600
1943.0000;3314.6620
1944.0000;3305.1880
1945.0000;3299.4240
1946.0000;3304.7260
1947.0000;3311.8940
1948.0000;3313.1970
1949.0000;3311.4450
1950.0000;3309.1020
1951.0000;3307.8420
1952.0000;3313.0190
1953.0000;3325.7550
1954.0000;3335.0940
1955.0000;3333.7260
1956.0000;3326.7420
1957.0000;3323.3850
1958.0000;3322.2920
1959.0000;3322.3020
1960.0000;3323.6160
1961.0000;3325.0300
1962.0000;3325.2460
1963.0000;3327.1000
1964.0000;3334.8660
1965.0000;3341.9760
1966.0000;3339.1340
1967.0000;3328.5950
1968.0000;3324.7080
1969.0000;3332.3540
1970.0000;3343.1190
1971.0000;3351.9030
1972.0000;3355.3390
1973.0000;3350.5510
1974.0000;3339.4640
1975.0000;3330.9700
1976.0000;3329.1940
1977.0000;3337.3440
1978.0000;3357.2600
1979.0000;3375.8000
1980.0000;3383.0590
1981.0000;3379.0820
1982.0000;3373.0520
1983.0000;3365.9300
1984.0000;3364.9640
1985.0000;3372.7010
1986.0000;3379.8330
1987.0000;3379.8170
1988.0000;3376.5740
1989.0000;3375.5190
1990.0000;3373.8410
1991.0000;3367.9290
1992.0000;3359.0590
1993.0000;3352.1300
1994.0000;3349.9590
1995.0000;3352.0260
1996.0000;3356.1810
1997.0000;3362.1040
1998.0000;3366.0210
1999.0000;3368.4660
2000.0000;3374.5050
2001.0000;3383.2440
2002.0000;3387.7120
2003.0000;3383.7550
2004.0000;3378.4560
2005.0000;3382.3290
2006.0000;3387.9650
2007.0000;3385.3890
2008.0000;3376.5060
2009.0000;3371.5930
2010.0000;3374.4720
2011.0000;3379.5940
2012.0000;3383.6740
2013.0000;3385.7770
2014.0000;3384.7920
2015.0000;3380.5310
2016.0000;3373.8500
2017.0000;3367.8760
2018.0000;3372.1430
2019.0000;3391.0310
2020.0000;3401.9110
2021.0000;3386.5570
2022.0000;3363.7520
2023.0000;3358.4520
2024.0000;3365.8530
2025.0000;3368.6620
2026.0000;3365.4530
2027.0000;3362.2490
2028.0000;3360.9240
2029.0000;3362.4710
2030.0000;3368.9150
2031.0000;3374.6270
2032.0000;3371.2080
2033.0000;3362.0680
2034.0000;3360.0550
2035.0000;3367.0830
2036.0000;3374.0590
2037.0000;3375.7960
2038.0000;3377.5590
2039.0000;3386.4910
2040.0000;3393.2690
2041.0000;3388.7450
2042.0000;3375.4860
2043.0000;3365.6940
2044.0000;3363.8410
2045.0000;3364.5870
2046.0000;3365.9100
2047.0000;3365.5000
2048.0000;3358.0020
2049.0000;3348.8150
2050.0000;3344.4220
2051.0000;3345.8830
2052.0000;3349.9550
2053.0000;3355.1040
2054.0000;3353.4900
2055.0000;3339.2820
2056.0000;3326.7000
2057.0000;3329.7690
2058.0000;3342.2860
2059.0000;3352.9880
2060.0000;3358.5350
2061.0000;3356.1870
2062.0000;3345.2340
2063.0000;3337.3940
2064.0000;3341.2560
2065.0000;3348.6000
2066.0000;3349.4190
2067.0000;3349.1680
2068.0000;3354.2830
2069.0000;3362.2560
2070.0000;3367.5170
2071.0000;3367.6690
2072.0000;3363.1890
2073.0000;3354.1720
2074.0000;3346.9420
2075.0000;3350.0210
2076.0000;3355.1280
2077.0000;3347.5900
2078.0000;3331.9160
2079.0000;3321.3250
2080.0000;3320.2020
2081.0000;3322.1290
2082.0000;3323.9450
2083.0000;3327.1430
2084.0000;3330.2660
2085.0000;3333.0670
2086.0000;3335.0650
2087.0000;3337.0500
2088.0000;3345.2180
2089.0000;3357.0550
2090.0000;3356.0800
2091.0000;3335.2900
2092.0000;3316.3490
2093.0000;3319.6670
2094.0000;3333.1720
2095.0000;3338.3860
2096.0000;3339.0220
2097.0000;3340.8120
2098.0000;3342.9140
2099.0000;3343.4220
2100.0000;3341.6890
2101.0000;3342.7150
2102.0000;3351.9530
2103.0000;3358.0050
2104.0000;3349.0350
2105.0000;3332.8650
2106.0000;3326.5030
2107.0000;3330.4090
2108.0000;3331.4340
2109.0000;3326.9940
2110.0000;3325.5380
2111.0000;3331.1810
2112.0000;3338.8000
2113.0000;3342.7060
2114.0000;3345.0050
2115.0000;3352.1940
2116.0000;3359.0440
2117.0000;3355.8960
2118.0000;3342.1910
2119.0000;3334.5430
2120.0000;3341.8610
2121.0000;3352.8220
2122.0000;3358.1550
2123.0000;3359.1370
2124.0000;3357.6290
2125.0000;3352.9680
2126.0000;3348.6380
2127.0000;3345.4120
2128.0000;3341.6400
2129.0000;3337.6520
2130.0000;3334.7490
2131.0000;3333.2770
2132.0000;3332.9260
2133.0000;3330.6230
2134.0000;3329.3600
2135.0000;3332.9770
2136.0000;3338.1210
2137.0000;3334.9780
2138.0000;3322.4940
2139.0000;3311.0760
2140.0000;3306.4130
2141.0000;3308.8710
2142.0000;3318.0750
2143.0000;3329.1500
2144.0000;3333.8750
2145.0000;3331.4310
2146.0000;3327.1430
2147.0000;3320.1220
2148.0000;3308.0990
2149.0000;3292.8190
2150.0000;3285.7290
2151.0000;3294.2230
2152.0000;3306.8000
2153.0000;3307.4550
2154.0000;3303.6120
2155.0000;3305.6600
2156.0000;3310.5900
2157.0000;3313.9550
2158.0000;3313.8050
2159.0000;3308.4720
2160.0000;3297.9770
2161.0000;3289.9500
2162.0000;3290.2780
2163.0000;3295.3900
2164.0000;3299.3760
2165.0000;3301.0220
2166.0000;3295.5590
2167.0000;3286.0150
2168.0000;3283.6970
2169.0000;3291.3600
2170.0000;3303.8110
2171.0000;3317.1780
2172.0000;3324.1820
2173.0000;3318.5880
2174.0000;3307.2190
2175.0000;3302.4440
2176.0000;3302.1370
2177.0000;3302.1050
2178.0000;3302.4910
2179.0000;3300.4240
2180.0000;3296.0210
2181.0000;3294.9860
2182.0000;3300.5180
2183.0000;3302.6520
2184.0000;3290.8190
2185.0000;3279.0890
2186.0000;3283.8890
2187.0000;3296.5100
2188.0000;3297.9320
2189.0000;3288.2600
2190.0000;3279.5850
2191.0000;3275.1530
2192.0000;3271.8310
2193.0000;3268.4680
2194.0000;3268.8770
2195.0000;3274.3130
2196.0000;3281.2130
2197.0000;3283.9600
2198.0000;3283.7910
2199.0000;3286.3300
2200.0000;3289.9470
2201.0000;3292.2410
2202.0000;3291.5000
2203.0000;3285.5610
2204.0000;3273.4480
2205.0000;3264.6200
2206.0000;3266.4310
2207.0000;3272.6320
2208.0000;3273.5390
2209.0000;3269.7010
2210.0000;3259.2300
2211.0000;3246.6330
2212.0000;3244.3740
2213.0000;3254.9490
2214.0000;3265.3350
2215.0000;3268.4130
2216.0000;3270.3840
2217.0000;3276.1020
2218.0000;3278.0380
2219.0000;3272.9410
2220.0000;3262.3010
2221.0000;3251.1030
2222.0000;3242.6090
2223.0000;3237.9940
2224.0000;3238.9330
2225.0000;3238.3370
2226.0000;3234.0340
2227.0000;3229.2660
2228.0000;3224.6410
2229.0000;3226.3360
2230.0000;3240.3190
2231.0000;3255.2880
2232.0000;3253.1670
2233.0000;3241.3250
2234.0000;3242.8820
2235.0000;3256.0360
2236.0000;3263.9240
2237.0000;3262.3710
2238.0000;3261.0340
2239.0000;3264.5790
2240.0000;3265.2630
2241.0000;3259.3940
2242.0000;3249.5100
2243.0000;3235.2620
2244.0000;3225.6830
2245.0000;3229.5390
2246.0000;3245.4500
2247.0000;3258.6840
2248.0000;3264.6970
2249.0000;3266.6290
2250.0000;3264.0830
2251.0000;3257.5230
2252.0000;3249.1160
2253.0000;3240.9480
2254.0000;3235.2540
2255.0000;3232.3050
2256.0000;3227.0300
2257.0000;3223.9910
2258.0000;3224.8290
2259.0000;3230.1730
2260.0000;3237.7400
2261.0000;3244.8620
2262.0000;3244.5200
2263.0000;3233.6620
2264.0000;3227.4110
2265.0000;3237.2800
2266.0000;3249.8600
2267.0000;3251.4080
2268.0000;3248.2690
2269.0000;3251.1820
2270.0000;3255.2550
2271.0000;3253.4440
2272.0000;3246.7510
2273.0000;3245.0310
2274.0000;3249.4060
2275.0000;3248.8230
2276.0000;3238.8400
2277.0000;3230.0540
2278.0000;3229.9020
2279.0000;3232.4680
2280.0000;3229.3940
2281.0000;3225.9120
2282.0000;3224.3570
2283.0000;3226.6990
2284.0000;3237.0370
2285.0000;3249.1790
2286.0000;3245.5270
2287.0000;3223.7470
2288.0000;3207.5340
2289.0000;3209.4610
2290.0000;3215.2520
2291.0000;3215.0540
2292.0000;3215.8330
2293.0000;3220.6700
2294.0000;3226.5410
2295.0000;3232.0400
2296.0000;3233.6970
2297.0000;3229.0560
2298.0000;3220.1030
2299.0000;3217.2020
2300.0000;3222.2590
2301.0000;3228.3150
2302.0000;3232.0740
2303.0000;3234.4510
2304.0000;3235.3130
2305.0000;3234.3740
2306.0000;3233.3100
2307.0000;3230.7280
2308.0000;3227.7170
2309.0000;3221.8370
2310.0000;3207.4530
2311.0000;3191.7260
2312.0000;3189.0810
2313.0000;3199.9490
2314.0000;3202.4050
2315.0000;3192.2490
2316.0000;3189.0960
2317.0000;3201.9290
2318.0000;3213.6240
2319.0000;3210.5830
2320.0000;3205.3520
2321.0000;3212.8820
2322.0000;3222.0720
2323.0000;3222.7810
2324.0000;3217.3160
2325.0000;3212.9090
2326.0000;3211.4220
2327.0000;3215.8020
2328.0000;3224.8290
2329.0000;3229.3140
2330.0000;3224.8200
2331.0000;3214.5970
2332.0000;3199.8470
2333.0000;3196.4420
2334.0000;3218.3060
2335.0000;3242.2000
2336.0000;3241.3040
2337.0000;3226.3550
2338.0000;3219.5440
2339.0000;3216.1060
2340.0000;3206.8290
2341.0000;3196.1340
2342.0000;3191.9760
2343.0000;3196.1210
2344.0000;3198.3070
2345.0000;3195.1440
2346.0000;3193.1980
2347.0000;3194.9840
2348.0000;3199.8550
2349.0000;3206.6910
2350.0000;3214.6000
2351.0000;3225.6640
2352.0000;3230.1940
2353.0000;3220.6590
2354.0000;3203.5230
2355.0000;3195.5870
2356.0000;3197.1830
2357.0000;3193.5570
2358.0000;3186.5130
2359.0000;3187.8390
2360.0000;3200.3570
2361.0000;3213.0360
2362.0000;3219.1520
2363.0000;3221.6060
2364.0000;3222.8890
2365.0000;3220.9290
2366.0000;3218.4980
2367.0000;3213.2180
2368.0000;3201.9930
2369.0000;3192.1130
2370.0000;3191.5840
2371.0000;3200.0790
2372.0000;3208.6590
2373.0000;3213.7240
2374.0000;3208.8870
2375.0000;3195.1560
2376.0000;3194.4520
2377.0000;3214.1910
2378.0000;3224.6660
2379.0000;3208.8920
2380.0000;3190.6680
2381.0000;3189.0580
2382.0000;3192.4370
2383.0000;3187.5320
2384.0000;3183.0050
2385.0000;3185.4180
2386.0000;3190.0260
2387.0000;3185.9960
2388.0000;3176.7780
2389.0000;3173.4020
2390.0000;3176.4420
2391.0000;3175.9710
2392.0000;3170.8650
2393.0000;3166.1800
2394.0000;3164.1160
2395.0000;3164.8090
2396.0000;3168.3830
2397.0000;3171.1890
2398.0000;3169.1790
2399.0000;3166.9300
2400.0000;3169.8780
2401.0000;3172.7630
2402.0000;3168.1340
2403.0000;3162.6410
2404.0000;3167.4330
2405.0000;3179.3160
2406.0000;3189.3680
2407.0000;3194.3470
2408.0000;3194.7600
2409.0000;3190.0520
2410.0000;3185.2200
2411.0000;3182.7440
2412.0000;3182.0990
2413.0000;3183.3940
2414.0000;3188.1350
2415.0000;3197.1830
2416.0000;3202.5160
2417.0000;3199.2340
2418.0000;3188.6000
2419.0000;3173.4760
2420.0000;3162.2800
2421.0000;3164.7710
2422.0000;3176.7070
2423.0000;3182.9400
2424.0000;3181.2360
2425.0000;3170.7640
2426.0000;3155.5330
2427.0000;3153.3200
2428.0000;3166.2130
2429.0000;3171.0980
2430.0000;3161.4660
2431.0000;3152.5810
2432.0000;3152.0100
2433.0000;3156.9380
2434.0000;3166.4500
2435.0000;3170.8080
2436.0000;3160.7540
2437.0000;3145.4160
2438.0000;3135.9600
2439.0000;3132.6550
2440.0000;3131.4830
2441.0000;3136.0750
2442.0000;3144.9590
2443.0000;3154.9030
2444.0000;3158.5610
2445.0000;3155.1900
2446.0000;3153.2290
2447.0000;3153.1440
2448.0000;3151.2530
2449.0000;3147.9120
2450.0000;3148.5060
2451.0000;3154.7240
2452.0000;3156.3020
2453.0000;3147.8340
2454.0000;3139.4320
2455.0000;3137.6550
2456.0000;3140.6600
2457.0000;3147.1280
2458.0000;3150.4000
2459.0000;3140.8540
2460.0000;3127.0770
2461.0000;3120.7360
2462.0000;3121.6310
2463.0000;3123.4840
2464.0000;3128.3950
2465.0000;3137.2560
2466.0000;3146.5400
2467.0000;3149.2780
2468.0000;3145.3510
2469.0000;3148.5240
2470.0000;3158.8890
2471.0000;3156.7770
2472.0000;3137.4370
2473.0000;3123.8040
2474.0000;3127.1160
2475.0000;3134.7380
2476.0000;3138.5520
2477.0000;3140.8970
2478.0000;3141.4000
2479.0000;3140.5090
2480.0000;3140.5060
2481.0000;3139.5380
2482.0000;3136.5100
2483.0000;3132.9200
2484.0000;3129.7410
2485.0000;3128.8430
2486.0000;3130.4230
2487.0000;3134.7380
2488.0000;3140.9260
2489.0000;3145.9150
2490.0000;3144.1510
2491.0000;3136.7380
2492.0000;3136.5390
2493.0000;3143.5160
2494.0000;3140.1560
2495.0000;3123.5590
2496.0000;3111.4340
2497.0000;3111.8590
2498.0000;3116.9570
2499.0000;3122.3740
2500.0000;3130.3450
2501.0000;3140.3960
2502.0000;3146.2230
2503.0000;3144.3100
2504.0000;3137.1890
2505.0000;3128.6040
2506.0000;3126.0190
2507.0000;3140.5990
2508.0000;3157.0210
2509.0000;3151.3240
2510.0000;3134.2620
2511.0000;3128.9620
2512.0000;3132.9250
2513.0000;3137.9570
2514.0000;3140.8840
2515.0000;3132.1040
2516.0000;3115.4160
2517.0000;3110.1390
2518.0000;3119.0910
2519.0000;3128.8330
2520.0000;3135.0260
2521.0000;3137.8190
2522.0000;3135.5370
2523.0000;3129.5650
2524.0000;3121.5800
2525.0000;3114.0880
2526.0000;3110.0190
2527.0000;3107.3880
2528.0000;3103.9530
2529.0000;3104.9760
2530.0000;3112.9440
2531.0000;3119.3250
2532.0000;3115.3890
2533.0000;3107.0290
2534.0000;3099.9000
2535.0000;3098.4710
2536.0000;3107.8600
2537.0000;3119.8340
2538.0000;3120.8780
2539.0000;3111.0540
2540.0000;3094.3040
2541.0000;3077.2830
2542.0000;3068.5660
2543.0000;3071.3170
2544.0000;3076.3130
2545.0000;3082.1710
2546.0000;3084.6240
2547.0000;3081.7740
2548.0000;3075.6280
2549.0000;3067.4860
2550.0000;3061.8300
2551.0000;3060.2130
2552.0000;3054.4230
2553.0000;3043.6850
2554.0000;3043.7060
2555.0000;3059.9920
2556.0000;3072.3020
2557.0000;3069.5220
2558.0000;3061.9510
2559.0000;3055.8490
2560.0000;3058.7870
2561.0000;3078.6080
2562.0000;3091.2740
2563.0000;3074.9580
2564.0000;3052.6970
2565.0000;3047.3610
2566.0000;3048.9950
2567.0000;3043.3090
2568.0000;3040.6790
2569.0000;3048.3270
2570.0000;3055.7600
2571.0000;3043.5230
2572.0000;3028.3960
2573.0000;3036.8410
2574.0000;3058.5970
2575.0000;3066.9380
2576.0000;3065.9070
2577.0000;3075.9750
2578.0000;3085.8720
2579.0000;3072.5950
2580.0000;3043.4580
2581.0000;3033.2410
2582.0000;3045.4110
2583.0000;3054.7190
2584.0000;3058.7430
2585.0000;3065.5510
2586.0000;3074.1750
2587.0000;3083.0990
2588.0000;3089.2220
2589.0000;3088.4130
2590.0000;3079.8020
2591.0000;3071.1520
2592.0000;3067.0100
2593.0000;3061.2580
2594.0000;3052.6970
2595.0000;3047.5480
2596.0000;3048.6470
2597.0000;3044.0080
2598.0000;3026.5380
2599.0000;3017.4300
2600.0000;3029.0030
2601.0000;3044.7190
2602.0000;3049.9380
2603.0000;3049.4950
2604.0000;3046.4730
2605.0000;3044.1540
2606.0000;3049.1710
2607.0000;3054.3370
2608.0000;3052.7650
2609.0000;3048.6370
2610.0000;3046.6640
2611.0000;3047.6410
2612.0000;3053.0600
2613.0000;3059.1460
2614.0000;3060.2650
2615.0000;3057.6360
2616.0000;3056.6730
2617.0000;3054.0910
2618.0000;3046.2250
2619.0000;3036.9340
2620.0000;3030.7550
2621.0000;3029.0350
2622.0000;3027.3260
2623.0000;3027.2150
2624.0000;3027.1510
2625.0000;3027.7340
2626.0000;3029.2940
2627.0000;3030.8120
2628.0000;3030.0860
2629.0000;3027.2140
2630.0000;3023.9480
2631.0000;3021.7030
2632.0000;3022.0140
2633.0000;3025.1370
2634.0000;3027.8110
2635.0000;3029.3410
2636.0000;3030.9040
2637.0000;3032.2810
2638.0000;3034.6820
2639.0000;3037.3920
2640.0000;3037.6810
2641.0000;3035.1730
2642.0000;3033.8660
2643.0000;3035.4640
2644.0000;3041.6010
2645.0000;3050.6250
2646.0000;3049.1360
2647.0000;3033.9820
2648.0000;3026.2920
2649.0000;3034.5120
2650.0000;3041.5280
2651.0000;3040.2260
2652.0000;3035.4520
2653.0000;3029.0230
2654.0000;3026.1140
2655.0000;3029.6410
2656.0000;3030.3130
2657.0000;3023.5560
2658.0000;3021.9320
2659.0000;3031.7770
2660.0000;3041.4590
2661.0000;3043.1830
2662.0000;3041.2830
2663.0000;3038.8210
2664.0000;3032.1750
2665.0000;3021.0120
2666.0000;3012.1290
2667.0000;3010.1840
2668.0000;3007.8040
2669.0000;2997.7040
2670.0000;2991.1640
2671.0000;2994.6880
2672.0000;2998.2110
2673.0000;2991.9300
2674.0000;2986.5630
2675.0000;2989.5630
2676.0000;2996.8940
2677.0000;3005.6920
2678.0000;3009.9270
2679.0000;3003.8730
2680.0000;2998.6230
2681.0000;3008.0150
2682.0000;3014.6430
2683.0000;3002.4330
2684.0000;2990.1830
2685.0000;2996.9190
2686.0000;3006.3390
2687.0000;3000.8750
2688.0000;2991.7190
2689.0000;2990.4930
2690.0000;2988.1110
2691.0000;2974.0630
2692.0000;2962.3550
2693.0000;2964.0580
2694.0000;2972.6120
2695.0000;2976.4970
2696.0000;2979.4270
2697.0000;2984.8660
2698.0000;2987.1340
2699.0000;2983.8600
2700.0000;2976.1490
2701.0000;2967.4180
2702.0000;2960.6440
2703.0000;2956.6710
2704.0000;2959.7280
2705.0000;2970.7120
2706.0000;2980.4640
2707.0000;2975.1450
2708.0000;2967.8510
2709.0000;2978.5620
2710.0000;2990.5840
2711.0000;2985.4390
2712.0000;2975.5670
2713.0000;2980.0060
2714.0000;2983.1490
2715.0000;2966.6180
2716.0000;2948.9800
2717.0000;2949.2770
2718.0000;2958.9920
2719.0000;2961.7330
2720.0000;2964.1260
2721.0000;2971.7050
2722.0000;2977.0460
2723.0000;2974.0320
2724.0000;2969.0010
2725.0000;2973.3220
2726.0000;2978.0120
2727.0000;2973.7610
2728.0000;2967.6800
2729.0000;2968.0530
2730.0000;2970.2800
2731.0000;2968.2750
2732.0000;2966.6690
2733.0000;2970.1950
2734.0000;2972.7360
2735.0000;2967.7230
2736.0000;2961.4840
2737.0000;2961.2850
2738.0000;2962.5070
2739.0000;2959.9010
2740.0000;2955.8900
2741.0000;2950.9680
2742.0000;2948.9500
2743.0000;2952.0460
2744.0000;2957.2590
2745.0000;2959.6350
2746.0000;2961.6970
2747.0000;2967.6520
2748.0000;2965.0220
2749.0000;2943.8690
2750.0000;2927.6620
2751.0000;2937.5740
2752.0000;2954.5710
2753.0000;2960.8630
2754.0000;2960.7840
2755.0000;2957.1300
2756.0000;2950.0550
2757.0000;2942.7630
2758.0000;2939.6700
2759.0000;2944.2990
2760.0000;2949.4550
2761.0000;2948.6090
2762.0000;2946.2340
2763.0000;2945.0310
2764.0000;2943.2170
2765.0000;2940.2640
2766.0000;2944.5720
2767.0000;2959.7670
2768.0000;2967.6030
2769.0000;2957.4530
2770.0000;2949.8200
2771.0000;2955.8550
2772.0000;2957.1860
2773.0000;2946.7830
2774.0000;2945.4940
2775.0000;2961.1240
2776.0000;2966.0590
2777.0000;2950.0820
2778.0000;2934.9470
2779.0000;2929.5630
2780.0000;2925.5750
2781.0000;2922.5700
2782.0000;2925.7730
2783.0000;2934.7940
2784.0000;2936.8430
2785.0000;2929.4740
2786.0000;2928.3050
2787.0000;2936.1090
2788.0000;2944.2000
2789.0000;2948.3680
2790.0000;2946.1420
2791.0000;2938.0850
2792.0000;2934.2170
2793.0000;2934.3340
2794.0000;2923.2850
2795.0000;2906.8080
2796.0000;2904.3760
2797.0000;2916.4030
2798.0000;2921.1290
2799.0000;2919.7570
2800.0000;2925.5260
2801.0000;2933.1860
2802.0000;2930.8170
2803.0000;2922.6250
2804.0000;2924.9020
2805.0000;2933.7450
2806.0000;2936.9110
2807.0000;2937.6580
2808.0000;2945.8230
2809.0000;2953.7090
2810.0000;2952.4130
2811.0000;2945.7300
2812.0000;2941.5760
2813.0000;2943.1840
2814.0000;2955.7270
2815.0000;2967.8350
2816.0000;2965.4310
2817.0000;2955.4720
2818.0000;2949.8760
2819.0000;2946.8850
2820.0000;2947.1020
2821.0000;2943.7650
2822.0000;2928.0910
2823.0000;2919.9550
2824.0000;2932.9840
2825.0000;2951.2460
2826.0000;2961.3130
2827.0000;2964.1730
2828.0000;2959.8670
2829.0000;2952.6210
2830.0000;2947.4580
2831.0000;2943.0390
2832.0000;2940.0880
2833.0000;2935.3520
2834.0000;2928.3760
2835.0000;2923.0160
2836.0000;2921.3570
2837.0000;2922.0960
2838.0000;2923.7400
2839.0000;2917.2540
2840.0000;2905.3480
2841.0000;2911.4580
2842.0000;2932.7160
2843.0000;2935.0560
2844.0000;2918.0650
2845.0000;2909.0620
2846.0000;2910.8900
2847.0000;2913.3960
2848.0000;2919.1040
2849.0000;2932.0570
2850.0000;2944.8630
2851.0000;2948.8950
2852.0000;2939.9950
2853.0000;2919.7980
2854.0000;2900.6780
2855.0000;2901.3230
2856.0000;2915.2000
2857.0000;2922.9340
2858.0000;2930.1210
2859.0000;2942.3870
2860.0000;2948.7230
2861.0000;2944.7840
2862.0000;2931.9660
2863.0000;2914.7630
2864.0000;2904.1480
2865.0000;2909.3540
2866.0000;2916.9240
2867.0000;2916.2500
2868.0000;2912.1970
2869.0000;2906.7080
2870.0000;2903.5810
2871.0000;2905.4820
2872.0000;2909.9050
2873.0000;2915.2380
2874.0000;2918.3030
2875.0000;2918.0110
2876.0000;2920.9320
2877.0000;2924.0090
2878.0000;2909.2970
2879.0000;2886.8060
2880.0000;2893.6030
2881.0000;2921.5160
2882.0000;2923.3050
2883.0000;2908.6010
2884.0000;2911.2550
2885.0000;2921.5960
2886.0000;2921.0680
2887.0000;2915.4810
2888.0000;2915.1050
2889.0000;2915.6130
2890.0000;2911.9700
2891.0000;2910.1300
2892.0000;2915.0090
2893.0000;2919.9700
2894.0000;2918.5020
2895.0000;2922.1470
2896.0000;2938.5390
2897.0000;2942.1480
2898.0000;2920.8570
2899.0000;2901.6540
2900.0000;2898.1850
2901.0000;2907.8170
2902.0000;2926.8200
2903.0000;2932.8890
2904.0000;2920.8330
2905.0000;2912.7340
2906.0000;2912.8670
2907.0000;2916.7890
2908.0000;2922.9530
2909.0000;2927.2360
2910.0000;2925.2110
2911.0000;2911.1670
2912.0000;2894.7320
2913.0000;2893.5060
2914.0000;2902.3560
2915.0000;2905.4850
2916.0000;2905.1090
2917.0000;2901.1740
2918.0000;2897.9030
2919.0000;2900.5750
2920.0000;2904.0010
2921.0000;2903.6500
2922.0000;2904.2760
2923.0000;2908.2470
2924.0000;2910.5160
2925.0000;2908.7080
2926.0000;2905.7720
2927.0000;2902.7200
2928.0000;2896.2510
2929.0000;2888.7790
2930.0000;2888.6400
2931.0000;2897.5880
2932.0000;2911.5790
2933.0000;2921.8130
2934.0000;2914.0440
2935.0000;2895.6640
2936.0000;2892.7430
2937.0000;2897.6510
2938.0000;2889.3920
2939.0000;2882.0600
2940.0000;2889.2230
2941.0000;2900.0500
2942.0000;2901.9210
2943.0000;2898.4190
2944.0000;2892.1160
2945.0000;2889.4080
2946.0000;2894.6750
2947.0000;2896.5480
2948.0000;2890.4130
2949.0000;2890.2000
2950.0000;2898.5370
2951.0000;2901.1030
2952.0000;2896.7470
2953.0000;2897.8880
2954.0000;2903.4950
2955.0000;2906.4110
2956.0000;2903.4080
2957.0000;2890.3230
2958.0000;2877.6560
2959.0000;2884.4030
2960.0000;2898.0200
2961.0000;2895.8740
2962.0000;2888.6910
2963.0000;2886.5230
2964.0000;2889.6400
2965.0000;2899.2650
2966.0000;2900.6860
2967.0000;2885.9400
2968.0000;2872.1870
2969.0000;2869.4080
2970.0000;2876.5950
2971.0000;2890.4070
2972.0000;2891.3100
2973.0000;2878.1090
2974.0000;2869.6730
2975.0000;2868.5720
2976.0000;2871.4430
2977.0000;2876.2320
2978.0000;2875.8210
2979.0000;2872.4480
2980.0000;2870.3770
2981.0000;2870.3280
2982.0000;2873.3910
2983.0000;2876.5520
2984.0000;2877.4480
2985.0000;2871.8270
2986.0000;2858.8820
2987.0000;2853.1020
2988.0000;2860.7010
2989.0000;2871.9510
2990.0000;2881.7660
2991.0000;2887.3340
2992.0000;2886.7040
2993.0000;2885.8400
2994.0000;2885.0030
2995.0000;2886.7930
2996.0000;2888.5060
2997.0000;2884.5470
2998.0000;2881.6780
2999.0000;2888.0350
3000.0000;2896.0390
3001.0000;2898.8000
3002.0000;2895.2180
3003.0000;2885.6370
3004.0000;2877.0710
3005.0000;2874.8350
3006.0000;2879.9880
3007.0000;2890.1700
3008.0000;2890.9630
3009.0000;2881.1590
3010.0000;2873.2890
3011.0000;2869.4300
3012.0000;2866.9890
3013.0000;2868.0150
3014.0000;2871.6840
3015.0000;2874.1040
3016.0000;2868.8790
3017.0000;2865.2160
3018.0000;2871.7660
3019.0000;2872.5410
3020.0000;2858.9600
3021.0000;2858.7160
3022.0000;2879.6580
3023.0000;2880.0990
3024.0000;2855.1100
3025.0000;2837.6120
3026.0000;2836.9750
3027.0000;2851.3240
3028.0000;2872.4240
3029.0000;2875.9440
3030.0000;2867.9170
3031.0000;2864.3330
3032.0000;2864.8600
3033.0000;2873.8570
3034.0000;2874.2950
3035.0000;2855.3670
3036.0000;2846.4360
3037.0000;2860.3310
3038.0000;2864.1620
3039.0000;2852.5550
3040.0000;2856.3340
3041.0000;2872.4790
3042.0000;2871.9490
3043.0000;2858.2970
3044.0000;2852.0860
3045.0000;2851.9910
3046.0000;2853.9970
3047.0000;2856.0880
3048.0000;2853.4100
3049.0000;2849.4030
3050.0000;2846.4980
3051.0000;2845.6580
3052.0000;2846.8650
3053.0000;2842.0660
3054.0000;2832.1330
3055.0000;2830.2830
3056.0000;2837.4400
3057.0000;2843.2880
3058.0000;2845.1840
3059.0000;2841.4360
3060.0000;2835.6950
3061.0000;2835.1670
3062.0000;2837.6690
3063.0000;2840.6780
3064.0000;2841.8600
3065.0000;2839.2950
3066.0000;2836.6730
3067.0000;2835.7570
3068.0000;2834.6190
3069.0000;2832.8500
3070.0000;2828.2190
3071.0000;2824.1480
3072.0000;2826.2850
3073.0000;2832.9000
3074.0000;2839.4700
3075.0000;2839.8930
3076.0000;2827.7490
3077.0000;2821.8700
3078.0000;2835.4450
3079.0000;2845.4240
3080.0000;2841.4820
3081.0000;2840.6060
3082.0000;2843.7240
3083.0000;2835.8310
3084.0000;2824.2150
3085.0000;2832.7150
3086.0000;2850.7650
3087.0000;2854.0430
3088.0000;2850.4010
3089.0000;2850.9290
3090.0000;2852.2200
3091.0000;2853.9800
3092.0000;2858.9820
3093.0000;2866.2440
3094.0000;2863.3550
3095.0000;2849.9210
3096.0000;2839.2070
3097.0000;2836.9250
3098.0000;2843.7650
3099.0000;2853.8930
3100.0000;2852.2040
3101.0000;2847.4620
3102.0000;2850.7020
3103.0000;2854.4350
3104.0000;2854.3730
3105.0000;2857.6010
3106.0000;2865.6700
3107.0000;2874.1260
3108.0000;2877.9330
3109.0000;2872.0470
3110.0000;2860.4430
3111.0000;2857.9480
3112.0000;2859.2240
3113.0000;2851.6450
3114.0000;2846.9730
3115.0000;2853.5540
3116.0000;2856.2170
3117.0000;2846.7190
3118.0000;2837.2460
3119.0000;2833.6510
3120.0000;2836.8520
3121.0000;2846.2390
3122.0000;2854.9720
3123.0000;2857.8710
3124.0000;2850.7100
3125.0000;2840.6040
3126.0000;2839.7930
3127.0000;2841.3340
3128.0000;2840.4950
3129.0000;2834.4340
3130.0000;2823.8590
3131.0000;2819.5620
3132.0000;2822.8490
3133.0000;2819.8450
3134.0000;2814.6200
3135.0000;2816.1520
3136.0000;2821.4190
3137.0000;2824.6520
3138.0000;2826.6240
3139.0000;2827.9020
3140.0000;2823.9930
3141.0000;2814.9190
3142.0000;2809.8600
3143.0000;2810.7630
3144.0000;2806.2350
3145.0000;2800.3890
3146.0000;2802.0160
3147.0000;2807.3460
3148.0000;2807.8050
3149.0000;2808.8480
3150.0000;2814.2920
3151.0000;2817.5730
3152.0000;2815.8400
3153.0000;2813.1630
3154.0000;2809.8440
3155.0000;2800.3700
3156.0000;2792.8990
3157.0000;2802.0000
3158.0000;2818.3920
3159.0000;2824.0850
3160.0000;2826.2370
3161.0000;2830.8840
3162.0000;2829.7320
3163.0000;2821.2650
3164.0000;2813.1970
3165.0000;2809.4390
3166.0000;2807.9740
3167.0000;2811.1050
3168.0000;2818.4710
3169.0000;2826.2700
3170.0000;2830.0050
3171.0000;2830.9500
3172.0000;2831.4230
3173.0000;2830.9990
3174.0000;2830.1040
3175.0000;2829.3270
3176.0000;2827.5500
3177.0000;2820.8120
3178.0000;2811.4630
3179.0000;2801.2530
3180.0000;2797.5600
3181.0000;2803.8400
3182.0000;2811.2910
3183.0000;2812.1260
3184.0000;2810.0380
3185.0000;2806.5920
3186.0000;2805.9370
3187.0000;2808.1280
3188.0000;2808.8100
3189.0000;2810.3020
3190.0000;2817.5790
3191.0000;2817.5840
3192.0000;2801.6380
3193.0000;2794.0750
3194.0000;2804.5020
3195.0000;2806.2090
3196.0000;2799.5790
3197.0000;2809.8620
3198.0000;2826.3510
3199.0000;2825.2170
3200.0000;2816.9810
3201.0000;2816.4090
3202.0000;2824.7810
3203.0000;2841.6180
3204.0000;2848.8110
3205.0000;2840.0390
3206.0000;2827.4000
3207.0000;2816.1440
3208.0000;2811.5010
3209.0000;2809.9100
3210.0000;2799.3440
3211.0000;2796.6150
3212.0000;2809.9730
3213.0000;2819.3340
3214.0000;2816.8930
3215.0000;2815.4070
3216.0000;2815.0030
3217.0000;2813.1310
3218.0000;2808.4970
3219.0000;2799.5780
3220.0000;2791.7110
3221.0000;2789.0030
3222.0000;2783.9350
3223.0000;2776.5090
3224.0000;2787.7550
3225.0000;2810.8720
3226.0000;2812.3520
3227.0000;2800.0200
3228.0000;2800.6800
3229.0000;2802.0990
3230.0000;2796.8520
3231.0000;2788.0740
3232.0000;2778.1480
3233.0000;2769.6160
3234.0000;2766.9600
3235.0000;2772.5430
3236.0000;2783.2530
3237.0000;2788.1540
3238.0000;2792.6750
3239.0000;2801.8550
3240.0000;2804.1550
3241.0000;2795.6590
3242.0000;2785.4290
3243.0000;2779.7510
3244.0000;2784.8660
3245.0000;2793.8640
3246.0000;2790.2160
3247.0000;2780.3280
3248.0000;2770.6370
3249.0000;2767.6250
3250.0000;2774.1540
3251.0000;2780.8150
3252.0000;2785.2110
3253.0000;2790.7470
3254.0000;2794.7130
3255.0000;2798.5120
3256.0000;2794.9980
3257.0000;2781.9760
3258.0000;2775.8940
3259.0000;2782.3770
3260.0000;2782.6500
3261.0000;2777.8540
3262.0000;2780.7640
3263.0000;2786.2380
3264.0000;2785.8060
3265.0000;2785.6010
3266.0000;2789.4330
3267.0000;2796.8060
3268.0000;2804.2750
3269.0000;2803.7750
3270.0000;2794.8150
3271.0000;2783.7510
3272.0000;2778.7200
3273.0000;2788.0440
3274.0000;2790.4650
3275.0000;2775.4060
3276.0000;2777.1630
3277.0000;2796.8730
3278.0000;2800.1350
3279.0000;2791.7000
3280.0000;2792.5280
3281.0000;2795.0830
3282.0000;2795.0690
3283.0000;2788.5980
3284.0000;2777.0290
3285.0000;2774.9040
3286.0000;2782.9130
3287.0000;2788.5850
3288.0000;2790.2440
3289.0000;2787.8970
3290.0000;2777.8020
3291.0000;2761.7570
3292.0000;2760.6110
3293.0000;2776.1720
3294.0000;2777.2140
3295.0000;2768.7860
3296.0000;2772.8440
3297.0000;2776.0930
3298.0000;2767.3810
3299.0000;2760.4940
3300.0000;2760.9070
3301.0000;2757.6530
3302.0000;2753.2290
3303.0000;2755.5600
3304.0000;2763.7890
3305.0000;2774.7730
3306.0000;2774.1310
3307.0000;2754.7350
3308.0000;2741.5340
3309.0000;2743.1260
3310.0000;2750.4350
3311.0000;2757.0000
3312.0000;2747.9830
3313.0000;2739.6650
3314.0000;2746.8230
3315.0000;2745.8400
3316.0000;2730.5260
3317.0000;2718.6830
3318.0000;2715.9640
3319.0000;2719.5000
3320.0000;2730.1780
3321.0000;2742.7560
3322.0000;2750.8560
3323.0000;2749.5050
3324.0000;2744.1540
3325.0000;2737.5780
3326.0000;2734.3400
3327.0000;2735.7880
3328.0000;2740.2370
3329.0000;2745.1950
3330.0000;2747.3320
3331.0000;2739.5490
3332.0000;2726.0710
3333.0000;2725.9080
3334.0000;2737.6180
3335.0000;2749.1470
3336.0000;2754.5040
3337.0000;2749.0810
3338.0000;2744.3120
3339.0000;2746.1820
3340.0000;2757.9260
3341.0000;2767.6970
3342.0000;2751.7660
3343.0000;2738.4420
3344.0000;2754.9590
3345.0000;2767.8760
3346.0000;2764.9610
3347.0000;2764.1980
3348.0000;2765.8860
3349.0000;2768.9620
3350.0000;2770.6360
3351.0000;2768.7340
3352.0000;2764.8610
3353.0000;2760.7140
3354.0000;2756.8320
3355.0000;2754.3460
3356.0000;2749.9120
3357.0000;2752.3290
3358.0000;2768.1280
3359.0000;2774.4630
3360.0000;2762.6350
3361.0000;2760.4880
3362.0000;2769.4870
3363.0000;2778.3730
3364.0000;2780.3490
3365.0000;2769.2850
3366.0000;2759.9320
3367.0000;2760.3510
3368.0000;2762.2590
3369.0000;2760.3380
3370.0000;2739.8470
3371.0000;2726.1580
3372.0000;2745.9960
3373.0000;2769.8150
3374.0000;2779.8670
3375.0000;2786.4800
3376.0000;2786.0920
3377.0000;2778.8630
3378.0000;2772.5650
3379.0000;2778.3130
3380.0000;2780.1420
3381.0000;2772.1800
3382.0000;2769.1820
3383.0000;2770.1760
3384.0000;2763.1820
3385.0000;2757.5860
3386.0000;2761.5670
3387.0000;2762.1070
3388.0000;2755.5030
3389.0000;2754.4890
3390.0000;2759.4960
3391.0000;2767.3510
3392.0000;2767.4390
3393.0000;2751.8340
3394.0000;2742.8230
3395.0000;2748.6210
3396.0000;2755.5320
3397.0000;2759.3090
3398.0000;2754.3970
3399.0000;2748.0220
3400.0000;2748.0040
3401.0000;2753.4430
3402.0000;2761.0450
3403.0000;2760.5790
3404.0000;2755.0380
3405.0000;2755.1480
3406.0000;2753.9290
3407.0000;2748.6680
3408.0000;2752.6680
3409.0000;2763.7190
3410.0000;2763.0330
3411.0000;2755.7400
3412.0000;2753.5300
3413.0000;2745.2060
3414.0000;2730.2370
3415.0000;2729.3390
3416.0000;2742.5760
3417.0000;2750.0110
3418.0000;2750.8480
3419.0000;2745.5300
3420.0000;2743.1460
3421.0000;2747.8770
3422.0000;2753.8280
3423.0000;2755.2220
3424.0000;2744.0140
3425.0000;2735.5130
3426.0000;2742.8920
3427.0000;2749.2140
3428.0000;2748.9830
3429.0000;2746.0090
3430.0000;2742.3890
3431.0000;2741.8490
3432.0000;2746.3230
3433.0000;2754.5800
3434.0000;2755.6050
3435.0000;2750.2330
3436.0000;2751.7930
3437.0000;2754.2500
3438.0000;2751.6760
3439.0000;2752.0040
3440.0000;2755.3390
3441.0000;2746.2050
3442.0000;2735.1160
3443.0000;2744.1530
3444.0000;2754.1240
3445.0000;2750.2410
3446.0000;2750.8370
3447.0000;2757.0320
3448.0000;2758.8580
3449.0000;2758.5350
3450.0000;2760.9050
3451.0000;2758.3990
3452.0000;2750.2590
3453.0000;2747.3640
3454.0000;2748.3000
3455.0000;2742.2060
3456.0000;2737.8600
3457.0000;2740.2160
3458.0000;2743.4950
3459.0000;2745.9630
3460.0000;2749.0720
3461.0000;2750.8020
3462.0000;2749.2790
3463.0000;2755.2360
3464.0000;2769.6130
3465.0000;2770.8110
3466.0000;2760.5000
3467.0000;2757.8550
3468.0000;2753.6200
3469.0000;2743.3390
3470.0000;2743.4410
3471.0000;2754.4590
3472.0000;2759.7960
3473.0000;2761.4100
3474.0000;2765.6730
3475.0000;2754.2010
3476.0000;2728.2600
3477.0000;2728.9520
3478.0000;2748.9060
3479.0000;2753.1990
3480.0000;2755.1480
3481.0000;2761.5420
3482.0000;2766.4280
3483.0000;2765.0740
3484.0000;2753.1230
3485.0000;2737.8720
3486.0000;2728.4710
3487.0000;2732.8510
3488.0000;2747.2810
3489.0000;2742.7410
3490.0000;2731.8730
3491.0000;2742.2780
3492.0000;2751.4850
3493.0000;2748.1370
3494.0000;2742.4460
3495.0000;2737.4000
3496.0000;2734.2490
3497.0000;2738.6830
3498.0000;2751.3760
3499.0000;2755.2410
3500.0000;2747.1750
3501.0000;2741.7110
3502.0000;2736.1540
3503.0000;2728.2100
3504.0000;2728.9760
3505.0000;2741.0360
3506.0000;2756.7840
3507.0000;2761.2350
3508.0000;2738.7810
3509.0000;2720.1010
3510.0000;2723.2770
3511.0000;2720.7400
3512.0000;2714.6930
3513.0000;2711.6980
3514.0000;2718.3250
3515.0000;2734.7540
3516.0000;2741.1030
3517.0000;2734.2900
3518.0000;2730.7490
3519.0000;2726.8710
3520.0000;2721.7250
3521.0000;2726.8260
3522.0000;2740.5840
3523.0000;2747.2220
3524.0000;2741.3210
3525.0000;2721.8450
3526.0000;2728.1420
3527.0000;2761.8860
3528.0000;2753.9190
3529.0000;2726.2330
3530.0000;2731.4450
3531.0000;2744.5330
3532.0000;2751.7910
3533.0000;2752.9620
3534.0000;2746.5870
3535.0000;2737.0040
3536.0000;2732.9890
3537.0000;2738.8690
3538.0000;2731.5740
3539.0000;2715.2000
3540.0000;2707.1280
3541.0000;2713.0470
3542.0000;2731.7480
3543.0000;2740.2920
3544.0000;2730.4330
3545.0000;2705.9820
3546.0000;2693.6530
3547.0000;2716.0940
3548.0000;2731.1640
3549.0000;2723.9350
3550.0000;2702.1190
3551.0000;2684.6550
3552.0000;2691.9710
3553.0000;2692.9690
3554.0000;2683.9040
3555.0000;2692.1150
3556.0000;2706.8280
3557.0000;2711.2880
3558.0000;2703.1310
3559.0000;2686.3400
3560.0000;2680.1640
3561.0000;2685.4820
3562.0000;2694.9730
3563.0000;2703.0960
3564.0000;2704.4720
3565.0000;2701.3010
3566.0000;2696.5090
3567.0000;2696.5850
3568.0000;2697.7200
3569.0000;2699.4770
3570.0000;2709.9940
3571.0000;2718.9770
3572.0000;2712.7720
3573.0000;2698.2780
3574.0000;2684.0780
3575.0000;2676.9130
3576.0000;2676.6280
3577.0000;2672.5060
3578.0000;2673.3420
3579.0000;2680.5340
3580.0000;2688.6570
3581.0000;2689.7390
3582.0000;2675.2540
3583.0000;2673.4920
3584.0000;2693.4430
3585.0000;2683.3010
3586.0000;2661.0540
3587.0000;2673.1350
3588.0000;2685.7440
3589.0000;2681.8860
3590.0000;2683.8990
3591.0000;2688.5910
3592.0000;2688.7290
3593.0000;2687.8870
3594.0000;2689.3540
3595.0000;2701.8650
3596.0000;2711.8700
3597.0000;2697.6140
3598.0000;2689.0570
3599.0000;2698.5980
3600.0000;2701.5230
3601.0000;2699.3680
3602.0000;2699.3420
3603.0000;2696.2400
3604.0000;2692.8360
3605.0000;2708.5800
3606.0000;2727.8940
3607.0000;2724.4720
3608.0000;2720.7690
3609.0000;2723.2720
3610.0000;2712.8780
3611.0000;2702.3130
3612.0000;2708.7300
3613.0000;2714.2940
3614.0000;2714.0540
3615.0000;2722.7160
3616.0000;2724.6070
3617.0000;2706.0660
3618.0000;2702.3840
3619.0000;2717.3500
3620.0000;2715.2410
3621.0000;2704.7580
3622.0000;2697.5210
3623.0000;2697.9300
3624.0000;2702.7170
3625.0000;2692.6540
3626.0000;2683.9780
3627.0000;2689.3040
3628.0000;2698.1750
3629.0000;2703.6000
3630.0000;2697.3030
3631.0000;2687.9730
3632.0000;2685.0720
3633.0000;2692.7380
3634.0000;2705.6680
3635.0000;2711.3220
3636.0000;2710.6290
3637.0000;2706.1600
3638.0000;2702.9770
3639.0000;2701.3070
3640.0000;2698.4250
3641.0000;2700.3440
3642.0000;2706.0810
3643.0000;2699.8260
3644.0000;2692.1950
3645.0000;2699.2980
3646.0000;2699.4630
3647.0000;2691.8100
3648.0000;2702.1060
3649.0000;2713.1000
3650.0000;2706.0350
3651.0000;2702.5960
3652.0000;2704.5270
3653.0000;2697.3190
3654.0000;2694.3480
3655.0000;2703.0050
3656.0000;2702.5230
3657.0000;2694.1170
3658.0000;2691.4370
3659.0000;2689.2120
3660.0000;2684.8230
3661.0000;2674.3970
3662.0000;2668.9970
3663.0000;2682.8450
3664.0000;2686.1640
3665.0000;2673.4060
3666.0000;2677.8550
3667.0000;2690.0970
3668.0000;2695.7020
3669.0000;2692.3170
3670.0000;2680.6810
3671.0000;2667.6150
3672.0000;2669.2170
3673.0000;2690.8920
3674.0000;2690.5990
3675.0000;2672.8580
3676.0000;2669.8370
3677.0000;2676.3220
3678.0000;2686.1210
3679.0000;2683.4760
3680.0000;2677.7990
3681.0000;2686.7020
3682.0000;2688.9820
3683.0000;2681.4900
3684.0000;2683.9010
3685.0000;2684.3100
3686.0000;2673.4800
3687.0000;2667.2130
3688.0000;2667.0250
3689.0000;2661.1100
3690.0000;2664.4960
3691.0000;2680.1630
3692.0000;2686.3000
3693.0000;2681.8470
3694.0000;2674.7460
3695.0000;2670.2210
3696.0000;2672.8980
3697.0000;2684.9960
3698.0000;2684.4780
3699.0000;2657.2020
3700.0000;2650.6730
3701.0000;2668.4810
3702.0000;2679.9790
3703.0000;2689.4110
3704.0000;2694.0320
3705.0000;2690.0040
3706.0000;2682.9310
3707.0000;2684.4240
3708.0000;2684.9630
3709.0000;2683.6690
3710.0000;2687.6480
3711.0000;2689.5300
3712.0000;2684.1350
3713.0000;2679.8260
3714.0000;2679.3040
3715.0000;2681.9650
3716.0000;2686.6890
3717.0000;2690.8670
3718.0000;2695.0880
3719.0000;2690.1830
3720.0000;2671.6100
3721.0000;2672.0210
3722.0000;2682.5210
3723.0000;2652.2480
3724.0000;2631.4470
3725.0000;2645.4870
3726.0000;2642.9490
3727.0000;2637.4220
3728.0000;2651.7840
3729.0000;2664.0820
3730.0000;2667.7150
3731.0000;2676.3550
3732.0000;2678.9610
3733.0000;2671.2600
3734.0000;2664.1240
3735.0000;2656.0640
3736.0000;2640.3940
3737.0000;2638.3450
3738.0000;2654.7930
3739.0000;2670.9050
3740.0000;2676.3040
3741.0000;2665.8760
3742.0000;2665.6730
3743.0000;2671.9220
3744.0000;2666.7870
3745.0000;2653.5680
3746.0000;2641.6860
3747.0000;2651.6020
3748.0000;2661.8910
3749.0000;2648.7840
3750.0000;2640.1380
3751.0000;2642.2500
3752.0000;2651.0280
3753.0000;2656.2480
3754.0000;2652.4600
3755.0000;2648.9610
3756.0000;2651.1750
3757.0000;2661.8250
3758.0000;2658.1840
3759.0000;2644.5500
3760.0000;2642.6410
3761.0000;2648.4040
3762.0000;2657.8880
3763.0000;2666.9240
3764.0000;2671.7920
3765.0000;2672.1160
3766.0000;2680.5880
3767.0000;2687.9810
3768.0000;2675.2730
3769.0000;2665.0140
3770.0000;2666.7310
3771.0000;2661.1140
3772.0000;2660.1980
3773.0000;2670.9310
3774.0000;2667.7700
3775.0000;2663.6950
3776.0000;2689.6190
3777.0000;2703.1230
3778.0000;2694.1660
3779.0000;2705.0780
3780.0000;2711.7820
3781.0000;2699.5160
3782.0000;2689.2750
3783.0000;2681.5960
3784.0000;2670.2470
3785.0000;2673.8700
3786.0000;2689.1510
3787.0000;2687.3780
3788.0000;2683.0180
3789.0000;2685.3020
3790.0000;2683.1700
3791.0000;2679.7800
3792.0000;2680.0550
3793.0000;2683.6830
3794.0000;2688.1560
3795.0000;2690.3970
3796.0000;2678.9620
3797.0000;2658.5730
3798.0000;2662.9620
3799.0000;2677.0120
3800.0000;2677.8390
3801.0000;2676.4050
3802.0000;2674.1580
3803.0000;2673.2530
3804.0000;2674.9680
3805.0000;2677.0290
3806.0000;2673.4980
3807.0000;2661.6440
3808.0000;2645.6260
3809.0000;2645.5460
3810.0000;2652.5830
3811.0000;2648.4590
3812.0000;2647.2290
3813.0000;2645.3090
3814.0000;2628.0890
3815.0000;2622.0910
3816.0000;2634.0460
3817.0000;2635.5050
3818.0000;2633.6500
3819.0000;2634.2450
3820.0000;2630.5070
3821.0000;2627.2950
3822.0000;2631.9230
3823.0000;2625.0200
3824.0000;2615.3880
3825.0000;2637.7300
3826.0000;2645.8420
3827.0000;2625.1880
3828.0000;2632.3830
3829.0000;2640.8820
3830.0000;2626.6240
3831.0000;2610.6480
3832.0000;2606.5220
3833.0000;2622.9420
3834.0000;2625.9590
3835.0000;2612.7110
3836.0000;2609.0560
3837.0000;2612.4480
3838.0000;2618.7940
3839.0000;2615.7030
3840.0000;2616.6430
3841.0000;2630.4300
3842.0000;2628.4570
3843.0000;2619.4130
3844.0000;2623.5390
3845.0000;2620.5690
3846.0000;2614.0730
3847.0000;2623.5670
3848.0000;2627.2190
3849.0000;2619.9000
3850.0000;2625.1140
3851.0000;2632.0250
3852.0000;2632.9880
3853.0000;2642.5380
3854.0000;2644.2220
3855.0000;2623.6510
3856.0000;2618.6540
3857.0000;2629.3440
3858.0000;2633.5210
3859.0000;2627.0290
3860.0000;2615.7000
3861.0000;2621.0810
3862.0000;2633.0460
3863.0000;2641.1440
3864.0000;2643.2080
3865.0000;2638.6240
3866.0000;2631.6420
3867.0000;2625.8100
3868.0000;2626.5850
3869.0000;2635.8070
3870.0000;2641.2910
3871.0000;2641.8030
3872.0000;2646.9510
3873.0000;2635.8910
3874.0000;2617.8500
3875.0000;2640.1870
3876.0000;2649.7890
3877.0000;2622.9950
3878.0000;2613.5460
3879.0000;2613.3480
3880.0000;2610.1660
3881.0000;2603.9440
3882.0000;2602.8630
3883.0000;2614.4070
3884.0000;2618.8240
3885.0000;2617.5760
3886.0000;2626.3810
3887.0000;2620.1360
3888.0000;2601.5950
3889.0000;2599.6860
3890.0000;2605.2910
3891.0000;2612.3500
3892.0000;2626.6540
3893.0000;2633.6630
3894.0000;2624.8560
3895.0000;2610.1200
3896.0000;2602.1740
3897.0000;2609.7230
3898.0000;2600.6230
3899.0000;2589.5450
3900.0000;2603.0630
3901.0000;2604.4390
3902.0000;2591.6940
3903.0000;2585.0540
3904.0000;2591.0550
3905.0000;2603.5730
3906.0000;2597.1800
3907.0000;2588.5500
3908.0000;2587.9240
3909.0000;2590.1520
3910.0000;2589.3540
3911.0000;2582.4730
3912.0000;2579.4530
3913.0000;2579.7620
3914.0000;2581.4640
3915.0000;2591.0310
3916.0000;2599.1750
3917.0000;2595.0630
3918.0000;2605.3510
3919.0000;2618.5000
3920.0000;2607.5240
3921.0000;2600.7510
3922.0000;2603.1370
3923.0000;2603.2550
3924.0000;2602.1130
3925.0000;2599.2420
3926.0000;2594.9270
3927.0000;2587.5490
3928.0000;2580.6280
3929.0000;2580.8700
3930.0000;2590.6490
3931.0000;2605.5410
3932.0000;2618.8390
3933.0000;2620.3370
3934.0000;2608.4780
3935.0000;2595.8310
3936.0000;2594.0230
3937.0000;2607.1790
3938.0000;2606.6490
3939.0000;2592.3770
3940.0000;2576.8490
3941.0000;2574.3570
3942.0000;2583.9140
3943.0000;2591.1710
3944.0000;2598.0520
3945.0000;2601.6040
3946.0000;2600.9940
3947.0000;2600.7210
3948.0000;2595.6690
3949.0000;2570.1490
3950.0000;2566.3840
3951.0000;2585.1840
3952.0000;2572.6980
3953.0000;2564.6250
3954.0000;2575.1190
3955.0000;2587.3930
3956.0000;2583.9000
3957.0000;2563.0790
3958.0000;2560.0750
3959.0000;2568.8090
3960.0000;2575.6110
3961.0000;2557.0940
3962.0000;2540.1810
3963.0000;2544.8600
3964.0000;2531.3320
3965.0000;2522.7480
3966.0000;2537.8770
3967.0000;2550.1230
3968.0000;2547.9370
3969.0000;2528.7780
3970.0000;2525.1830
3971.0000;2530.5200
3972.0000;2526.5570
3973.0000;2523.5950
3974.0000;2521.7130
3975.0000;2518.8780
3976.0000;2515.7340
3977.0000;2517.0730
3978.0000;2526.6690
3979.0000;2521.1660
3980.0000;2505.2870
3981.0000;2499.7100
3982.0000;2504.4120
3983.0000;2515.7180
3984.0000;2522.5380
3985.0000;2530.2470
3986.0000;2530.4170
3987.0000;2510.5930
3988.0000;2506.8530
3989.0000;2522.6050
3990.0000;2528.4510
3991.0000;2528.2290
3992.0000;2521.1340
3993.0000;2507.9350
3994.0000;2509.4980
3995.0000;2525.4440
3996.0000;2530.4580
3997.0000;2522.4900
3998.0000;2513.2560
3999.0000;2534.2750
4000.0000;2538.6920
4001.0000;2520.6640
4002.0000;2528.8280
4003.0000;2536.1360
4004.0000;2532.9850
4005.0000;2529.3260
4006.0000;2539.8560
4007.0000;2557.6140
4008.0000;2546.8050
4009.0000;2529.2290
4010.0000;2521.0920
4011.0000;2523.5220
4012.0000;2536.2170
4013.0000;2547.1180
4014.0000;2538.1950
4015.0000;2524.4000
4016.0000;2520.2430
4017.0000;2530.8910
4018.0000;2536.1320
4019.0000;2529.4280
4020.0000;2531.0670
4021.0000;2534.9730
4022.0000;2536.0840
4023.0000;2528.0300
4024.0000;2534.2270
4025.0000;2547.3210
4026.0000;2519.7630
4027.0000;2503.3140
4028.0000;2512.0250
4029.0000;2508.3090
4030.0000;2503.8710
4031.0000;2500.8810
4032.0000;2495.4350
4033.0000;2496.0990
4034.0000;2497.9400
4035.0000;2482.9170
4036.0000;2477.8740
4037.0000;2483.8710
4038.0000;2476.6560
4039.0000;2478.7810
4040.0000;2489.3920
4041.0000;2491.3320
4042.0000;2481.4340
4043.0000;2470.4910
4044.0000;2479.4440
4045.0000;2485.4590
4046.0000;2483.3460
4047.0000;2479.1980
4048.0000;2488.9640
4049.0000;2495.5250
4050.0000;2470.4270
4051.0000;2468.5580
4052.0000;2487.7530
4053.0000;2497.9450
4054.0000;2495.3470
4055.0000;2490.2470
4056.0000;2499.6560
4057.0000;2505.7700
4058.0000;2504.3500
4059.0000;2496.6310
4060.0000;2486.2600
4061.0000;2480.0800
4062.0000;2483.5640
4063.0000;2501.8240
4064.0000;2513.9030
4065.0000;2503.0160
4066.0000;2492.4490
4067.0000;2488.2550
4068.0000;2492.7990
4069.0000;2496.0030
4070.0000;2500.8090
4071.0000;2505.0240
4072.0000;2497.2810
4073.0000;2493.2390
4074.0000;2499.2910
4075.0000;2503.4490
4076.0000;2495.1220
4077.0000;2477.8550
4078.0000;2470.9780
4079.0000;2474.3580
4080.0000;2480.2660
4081.0000;2472.7710
4082.0000;2468.2300
4083.0000;2463.3110
4084.0000;2444.4950
4085.0000;2432.9340
4086.0000;2433.4760
4087.0000;2438.7300
4088.0000;2444.0720
4089.0000;2444.8750
4090.0000;2440.2260
4091.0000;2442.7290
4092.0000;2440.7180
4093.0000;2425.9260
4094.0000;2415.3310
4095.0000;2421.3550
4096.0000;2442.4670
4097.0000;2452.7280
4098.0000;2453.9300
4099.0000;2446.8620
4100.0000;2424.3940
4101.0000;2418.2290
4102.0000;2432.8030
4103.0000;2433.3510
4104.0000;2426.6580
4105.0000;2413.5140
4106.0000;2394.2100
4107.0000;2381.6790
4108.0000;2378.5710
4109.0000;2376.9380
4110.0000;2369.3670
4111.0000;2348.8220
4112.0000;2318.5780
4113.0000;2311.2630
4114.0000;2302.6450
4115.0000;2271.0340
4116.0000;2249.9800
4117.0000;2229.9290
4118.0000;2205.5000
4119.0000;2184.8690
4120.0000;2169.8670
4121.0000;2156.8790
4122.0000;2137.9090
4123.0000;2116.1040
4124.0000;2093.1370
4125.0000;2066.7850
4126.0000;2042.7410
4127.0000;2027.6950
4128.0000;2018.4940
4129.0000;1988.5770
4130.0000;1953.7020
4131.0000;1934.4840
4132.0000;1924.2780
4133.0000;1903.4890
4134.0000;1863.9250
4135.0000;1833.3840
4136.0000;1810.5780
4137.0000;1788.4380
4138.0000;1750.8470
4139.0000;1717.9700
4140.0000;1690.1000
4141.0000;1650.5310
4142.0000;1630.9870
4143.0000;1610.4030
4144.0000;1558.4800
4145.0000;1529.1750
4146.0000;1520.2040
4147.0000;1510.8480
4148.0000;1477.4760
4149.0000;1445.5910
4150.0000;1428.2730
4151.0000;1401.5370
4152.0000;1391.1430
4153.0000;1391.7850
4154.0000;1373.5370
4155.0000;1354.4030
4156.0000;1338.7180
4157.0000;1324.7490
4158.0000;1309.1860
4159.0000;1282.5570
4160.0000;1246.5380
4161.0000;1238.2520
4162.0000;1237.3390
4163.0000;1225.4040
4164.0000;1204.3380
4165.0000;1189.3290
4166.0000;1183.4010
4167.0000;1173.9230
4168.0000;1164.0320
4169.0000;1161.7510
4170.0000;1169.6900
4171.0000;1163.9730
4172.0000;1145.6740
4173.0000;1127.8110
4174.0000;1133.4750
4175.0000;1131.4490
4176.0000;1116.1820
4177.0000;1118.7120
4178.0000;1119.6210
4179.0000;1117.2870
4180.0000;1117.1190
4181.0000;1109.9860
4182.0000;1100.5110
4183.0000;1095.3140
4184.0000;1091.6480
4185.0000;1087.4180
4186.0000;1082.3020
4187.0000;1078.8980
4188.0000;1090.9110
4189.0000;1105.4330
4190.0000;1098.5050
4191.0000;1107.9710
4192.0000;1116.3880
4193.0000;1103.9220
4194.0000;1101.3860
4195.0000;1101.5570
4196.0000;1099.2260
4197.0000;1096.2080
4198.0000;1092.5400
4199.0000;1090.9600
4200.0000;1093.9490
4201.0000;1093.5880
4202.0000;1088.2580
4203.0000;1080.8090
4204.0000;1076.3540
4205.0000;1080.2090
4206.0000;1087.1130
4207.0000;1079.5430
4208.0000;1078.2180
4209.0000;1088.5380
4210.0000;1102.6130
4211.0000;1099.1890
4212.0000;1093.1710
4213.0000;1099.4820
4214.0000;1094.8930
4215.0000;1087.1600
4216.0000;1081.7530
4217.0000;1078.1430
4218.0000;1068.8920
4219.0000;1065.5210
4220.0000;1079.5520
4221.0000;1080.5110
4222.0000;1079.9120
4223.0000;1086.5770
4224.0000;1089.2800
4225.0000;1083.8800
4226.0000;1078.4330
4227.0000;1087.0150
4228.0000;1090.3890
4229.0000;1079.0890
4230.0000;1058.3910
4231.0000;1060.8920
4232.0000;1080.1150
4233.0000;1097.6380
4234.0000;1094.7010
4235.0000;1080.8600
4236.0000;965.9678
4237.0000;690.8279
4238.0000;364.4670
