Raman Shift ; Dark Subtracted #1
98.0000;1518.9680
99.0000;1514.0880
100.0000;1497.0380
101.0000;1486.9620
102.0000;1506.4590
103.0000;1538.5710
104.0000;1554.6860
105.0000;1547.9340
106.0000;1542.1220
107.0000;1556.0580
108.0000;1573.3680
109.0000;1583.6230
110.0000;1584.1600
111.0000;1581.6130
112.0000;1578.2240
113.0000;1575.6850
114.0000;1579.9310
115.0000;1586.6720
116.0000;1586.6080
117.0000;1577.9910
118.0000;1575.2170
119.0000;1592.2590
120.0000;1614.3890
121.0000;1620.5990
122.0000;1610.7260
123.0000;1606.0360
124.0000;1619.5220
125.0000;1632.1140
126.0000;1624.9930
127.0000;1607.7240
128.0000;1604.1630
129.0000;1622.2070
130.0000;1644.1120
131.0000;1656.6440
132.0000;1658.0810
133.0000;1649.1810
134.0000;1631.4450
135.0000;1619.8140
136.0000;1626.7660
137.0000;1638.7730
138.0000;1638.3900
139.0000;1631.1690
140.0000;1630.1450
141.0000;1639.7870
142.0000;1650.3330
143.0000;1652.9040
144.0000;1653.5650
145.0000;1664.5020
146.0000;1683.1790
147.0000;1692.9680
148.0000;1682.2080
149.0000;1669.6980
150.0000;1680.0390
151.0000;1704.7140
152.0000;1721.7970
153.0000;1723.3690
154.0000;1717.6420
155.0000;1715.2480
156.0000;1710.5130
157.0000;1702.6750
158.0000;1693.6060
159.0000;1689.5840
160.0000;1695.3070
161.0000;1701.1790
162.0000;1692.2160
163.0000;1677.3290
164.0000;1675.5510
165.0000;1692.5490
166.0000;1711.3050
167.0000;1718.1270
168.0000;1717.6030
169.0000;1716.3630
170.0000;1715.0260
171.0000;1720.1910
172.0000;1735.7410
173.0000;1752.9430
174.0000;1766.8890
175.0000;1772.5450
176.0000;1770.7290
177.0000;1760.4020
178.0000;1751.0920
179.0000;1751.7790
180.0000;1757.7200
181.0000;1762.7560
182.0000;1766.4240
183.0000;1768.1730
184.0000;1767.1330
185.0000;1764.3990
186.0000;1762.3870
187.0000;1760.2780
188.0000;1756.6890
189.0000;1752.9720
190.0000;1753.1110
191.0000;1759.2410
192.0000;1768.4940
193.0000;1776.7120
194.0000;1783.1270
195.0000;1790.6210
196.0000;1798.2710
197.0000;1800.5960
198.0000;1794.1830
199.0000;1785.9650
200.0000;1787.6370
201.0000;1798.7880
202.0000;1812.2480
203.0000;1824.3660
204.0000;1831.5060
205.0000;1831.7730
206.0000;1825.6100
207.0000;1821.4110
208.0000;1820.9410
209.0000;1826.0370
210.0000;1839.6800
211.0000;1850.5290
212.0000;1841.4230
213.0000;1824.3170
214.0000;1827.9590
215.0000;1858.9080
216.0000;1891.9580
217.0000;1908.4470
218.0000;1909.4870
219.0000;1902.1170
220.0000;1885.8700
221.0000;1875.6590
222.0000;1878.0580
223.0000;1887.5560
224.0000;1898.7350
225.0000;1909.4400
226.0000;1914.9110
227.0000;1912.8020
228.0000;1907.4320
229.0000;1900.0830
230.0000;1900.3780
231.0000;1922.6640
232.0000;1951.9870
233.0000;1963.8230
234.0000;1951.0490
235.0000;1932.0810
236.0000;1918.9800
237.0000;1912.9650
238.0000;1917.4730
239.0000;1932.1170
240.0000;1947.4970
241.0000;1958.4750
242.0000;1963.9940
243.0000;1963.3880
244.0000;1956.9460
245.0000;1950.5820
246.0000;1945.9820
247.0000;1945.5880
248.0000;1951.0320
249.0000;1961.2440
250.0000;1975.3680
251.0000;1987.4160
252.0000;1990.1070
253.0000;1983.4380
254.0000;1981.0550
255.0000;1988.5770
256.0000;1995.0000
257.0000;1989.1260
258.0000;1982.4270
259.0000;1991.9350
260.0000;2015.1530
261.0000;2032.3480
262.0000;2034.3670
263.0000;2026.4700
264.0000;2013.8530
265.0000;2002.3990
266.0000;2005.3180
267.0000;2024.3940
268.0000;2046.3730
269.0000;2064.8880
270.0000;2074.7280
271.0000;2073.8850
272.0000;2063.8230
273.0000;2060.8480
274.0000;2066.7250
275.0000;2075.4960
276.0000;2084.5200
277.0000;2089.8470
278.0000;2088.3760
279.0000;2080.9080
280.0000;2073.8020
281.0000;2069.9950
282.0000;2073.4030
283.0000;2086.7730
284.0000;2104.6910
285.0000;2121.3820
286.0000;2132.5610
287.0000;2139.6240
288.0000;2140.1150
289.0000;2141.4370
290.0000;2150.2630
291.0000;2157.4470
292.0000;2158.0260
293.0000;2152.6200
294.0000;2146.8810
295.0000;2143.4470
296.0000;2148.8580
297.0000;2168.1020
298.0000;2187.6280
299.0000;2190.9720
300.0000;2181.6200
301.0000;2174.6460
302.0000;2174.8250
303.0000;2190.7330
304.0000;2230.1160
305.0000;2268.2820
306.0000;2282.0130
307.0000;2273.0840
308.0000;2268.4250
309.0000;2270.1410
310.0000;2272.7870
311.0000;2273.7570
312.0000;2281.5910
313.0000;2309.9190
314.0000;2341.6200
315.0000;2349.5490
316.0000;2328.2840
317.0000;2311.0720
318.0000;2318.6840
319.0000;2336.9920
320.0000;2353.8920
321.0000;2370.4940
322.0000;2390.6950
323.0000;2408.3710
324.0000;2415.6730
325.0000;2407.6210
326.0000;2397.1960
327.0000;2405.0880
328.0000;2419.4830
329.0000;2423.2190
330.0000;2416.4860
331.0000;2418.5280
332.0000;2437.4270
333.0000;2454.3330
334.0000;2451.7550
335.0000;2441.8280
336.0000;2448.4190
337.0000;2467.8780
338.0000;2482.3920
339.0000;2484.0330
340.0000;2483.3280
341.0000;2492.8780
342.0000;2501.2590
343.0000;2502.0190
344.0000;2494.9970
345.0000;2486.7840
346.0000;2480.9330
347.0000;2482.7490
348.0000;2496.7600
349.0000;2516.2330
350.0000;2528.3890
351.0000;2534.7270
352.0000;2548.1140
353.0000;2567.3100
354.0000;2583.3800
355.0000;2592.4150
356.0000;2593.1520
357.0000;2592.3690
358.0000;2588.5640
359.0000;2589.2820
360.0000;2594.4190
361.0000;2596.0700
362.0000;2589.0320
363.0000;2587.1930
364.0000;2604.7470
365.0000;2630.3840
366.0000;2649.0420
367.0000;2654.9940
368.0000;2656.1350
369.0000;2653.9960
370.0000;2653.9660
371.0000;2668.3670
372.0000;2680.3290
373.0000;2669.9060
374.0000;2643.8170
375.0000;2627.9500
376.0000;2632.2460
377.0000;2639.8390
378.0000;2638.3090
379.0000;2635.0570
380.0000;2631.9250
381.0000;2631.3120
382.0000;2638.8400
383.0000;2652.0350
384.0000;2653.5140
385.0000;2632.2990
386.0000;2612.8500
387.0000;2624.9950
388.0000;2647.3060
389.0000;2646.8220
390.0000;2624.7300
391.0000;2603.5460
392.0000;2593.7600
393.0000;2587.7480
394.0000;2575.7990
395.0000;2572.9110
396.0000;2587.4440
397.0000;2613.6530
398.0000;2629.5770
399.0000;2628.2780
400.0000;2623.3550
401.0000;2623.3850
402.0000;2622.4200
403.0000;2619.2550
404.0000;2615.1910
405.0000;2612.2930
406.0000;2611.0920
407.0000;2609.1270
408.0000;2605.6960
409.0000;2603.4990
410.0000;2603.5470
411.0000;2605.7570
412.0000;2608.2420
413.0000;2611.2810
414.0000;2615.7490
415.0000;2620.6980
416.0000;2623.3990
417.0000;2622.1330
418.0000;2620.0310
419.0000;2624.6540
420.0000;2627.7090
421.0000;2617.8410
422.0000;2598.0230
423.0000;2582.9220
424.0000;2579.6170
425.0000;2583.3190
426.0000;2589.7040
427.0000;2596.7090
428.0000;2597.7780
429.0000;2592.6150
430.0000;2584.1130
431.0000;2574.2320
432.0000;2568.1910
433.0000;2569.7500
434.0000;2572.6210
435.0000;2567.9930
436.0000;2562.2440
437.0000;2560.6870
438.0000;2563.5740
439.0000;2567.2340
440.0000;2570.5200
441.0000;2573.4140
442.0000;2575.8750
443.0000;2575.4920
444.0000;2572.3800
445.0000;2565.6080
446.0000;2555.3910
447.0000;2543.9360
448.0000;2535.3900
449.0000;2532.2510
450.0000;2530.9530
451.0000;2526.1030
452.0000;2524.7070
453.0000;2530.7790
454.0000;2541.2110
455.0000;2547.2270
456.0000;2546.8750
457.0000;2547.4600
458.0000;2551.6610
459.0000;2554.6830
460.0000;2552.1030
461.0000;2551.2270
462.0000;2562.5570
463.0000;2580.1680
464.0000;2593.2240
465.0000;2596.0700
466.0000;2588.5400
467.0000;2570.7260
468.0000;2554.0270
469.0000;2549.1020
470.0000;2555.9470
471.0000;2568.2720
472.0000;2582.8930
473.0000;2586.6800
474.0000;2577.3230
475.0000;2573.5890
476.0000;2586.6450
477.0000;2602.3330
478.0000;2611.0100
479.0000;2611.4490
480.0000;2606.6890
481.0000;2597.8140
482.0000;2595.9640
483.0000;2603.1950
484.0000;2605.2230
485.0000;2594.0190
486.0000;2581.6670
487.0000;2580.8930
488.0000;2584.7570
489.0000;2579.3130
490.0000;2569.3620
491.0000;2568.1610
492.0000;2577.7340
493.0000;2581.8750
494.0000;2569.5420
495.0000;2559.3330
496.0000;2569.4150
497.0000;2588.9490
498.0000;2600.9940
499.0000;2603.5810
500.0000;2603.4310
501.0000;2600.3160
502.0000;2594.4110
503.0000;2587.7980
504.0000;2580.4660
505.0000;2572.6930
506.0000;2566.5160
507.0000;2558.3030
508.0000;2554.2750
509.0000;2561.5030
510.0000;2579.6670
511.0000;2593.1580
512.0000;2591.1220
513.0000;2587.5280
514.0000;2596.5730
515.0000;2609.0400
516.0000;2618.7650
517.0000;2623.5890
518.0000;2625.6060
519.0000;2623.6450
520.0000;2619.2460
521.0000;2613.8050
522.0000;2613.9670
523.0000;2625.9880
524.0000;2640.3560
525.0000;2643.1330
526.0000;2638.8470
527.0000;2641.5350
528.0000;2651.7470
529.0000;2667.7030
530.0000;2686.7300
531.0000;2690.9680
532.0000;2667.0630
533.0000;2641.7670
534.0000;2649.4740
535.0000;2677.5100
536.0000;2700.0590
537.0000;2711.9610
538.0000;2715.2680
539.0000;2707.9260
540.0000;2697.0000
541.0000;2688.8580
542.0000;2685.6400
543.0000;2689.9830
544.0000;2698.8470
545.0000;2702.5480
546.0000;2703.2270
547.0000;2710.2360
548.0000;2721.3130
549.0000;2722.8380
550.0000;2709.0360
551.0000;2695.1720
552.0000;2691.1210
553.0000;2700.7630
554.0000;2729.1600
555.0000;2761.7000
556.0000;2773.8490
557.0000;2761.8370
558.0000;2749.1010
559.0000;2742.0630
560.0000;2734.9960
561.0000;2727.0350
562.0000;2723.2610
563.0000;2724.5100
564.0000;2730.4520
565.0000;2734.7900
566.0000;2738.4350
567.0000;2745.3160
568.0000;2753.3550
569.0000;2753.8690
570.0000;2743.8290
571.0000;2739.3880
572.0000;2753.8440
573.0000;2771.8050
574.0000;2778.6660
575.0000;2774.8730
576.0000;2766.2660
577.0000;2756.2040
578.0000;2757.6110
579.0000;2772.5840
580.0000;2781.7740
581.0000;2773.9340
582.0000;2766.4710
583.0000;2775.2090
584.0000;2786.0860
585.0000;2781.1650
586.0000;2770.8520
587.0000;2774.8930
588.0000;2792.7350
589.0000;2813.1080
590.0000;2829.8920
591.0000;2835.7070
592.0000;2826.5480
593.0000;2811.6560
594.0000;2805.3000
595.0000;2803.2110
596.0000;2798.8480
597.0000;2797.8220
598.0000;2805.9890
599.0000;2819.8130
600.0000;2819.3640
601.0000;2799.2600
602.0000;2786.5060
603.0000;2797.4410
604.0000;2810.3990
605.0000;2802.4510
606.0000;2788.7050
607.0000;2788.2830
608.0000;2795.2690
609.0000;2793.7980
610.0000;2784.8310
611.0000;2782.4290
612.0000;2789.1860
613.0000;2780.5580
614.0000;2741.4170
615.0000;2706.1050
616.0000;2697.9060
617.0000;2712.6890
618.0000;2732.4990
619.0000;2752.2330
620.0000;2755.5340
621.0000;2740.8690
622.0000;2728.4960
623.0000;2724.0150
624.0000;2716.3880
625.0000;2700.8030
626.0000;2697.3070
627.0000;2720.0520
628.0000;2753.3100
629.0000;2772.7270
630.0000;2779.2210
631.0000;2790.6310
632.0000;2798.7220
633.0000;2794.8010
634.0000;2777.3880
635.0000;2755.6010
636.0000;2736.9710
637.0000;2729.2570
638.0000;2735.8750
639.0000;2753.5480
640.0000;2771.1030
641.0000;2784.1160
642.0000;2788.4060
643.0000;2783.1890
644.0000;2780.5610
645.0000;2783.9800
646.0000;2800.2640
647.0000;2830.6980
648.0000;2846.8110
649.0000;2829.3020
650.0000;2805.5010
651.0000;2805.8660
652.0000;2818.0450
653.0000;2828.6060
654.0000;2835.5770
655.0000;2831.3670
656.0000;2818.9310
657.0000;2819.3800
658.0000;2836.1160
659.0000;2844.9740
660.0000;2834.3540
661.0000;2820.5990
662.0000;2816.0400
663.0000;2815.6690
664.0000;2813.9020
665.0000;2813.3970
666.0000;2812.6770
667.0000;2812.1980
668.0000;2809.6280
669.0000;2807.6640
670.0000;2818.0520
671.0000;2840.8480
672.0000;2844.6430
673.0000;2811.1810
674.0000;2785.7900
675.0000;2810.0440
676.0000;2844.0520
677.0000;2837.0720
678.0000;2813.8700
679.0000;2818.0010
680.0000;2840.5890
681.0000;2851.6170
682.0000;2845.4600
683.0000;2835.7720
684.0000;2826.7320
685.0000;2817.7190
686.0000;2809.6450
687.0000;2811.4580
688.0000;2831.3470
689.0000;2847.4610
690.0000;2830.4600
691.0000;2800.6550
692.0000;2798.0040
693.0000;2814.7330
694.0000;2815.3810
695.0000;2798.2110
696.0000;2780.5320
697.0000;2770.8840
698.0000;2773.6290
699.0000;2791.7290
700.0000;2813.6840
701.0000;2825.1410
702.0000;2831.3750
703.0000;2844.5340
704.0000;2852.5020
705.0000;2852.9440
706.0000;2842.8710
707.0000;2825.7780
708.0000;2807.5810
709.0000;2803.2560
710.0000;2817.5750
711.0000;2827.9230
712.0000;2822.2660
713.0000;2821.5010
714.0000;2839.3060
715.0000;2860.1550
716.0000;2877.3160
717.0000;2879.4190
718.0000;2860.2620
719.0000;2830.8100
720.0000;2819.0460
721.0000;2825.6460
722.0000;2824.8330
723.0000;2817.6480
724.0000;2825.4280
725.0000;2851.9290
726.0000;2868.9540
727.0000;2858.4230
728.0000;2846.9850
729.0000;2859.7270
730.0000;2875.1500
731.0000;2874.7200
732.0000;2863.0700
733.0000;2847.8980
734.0000;2834.5470
735.0000;2829.3380
736.0000;2835.6820
737.0000;2845.4550
738.0000;2856.5810
739.0000;2868.1570
740.0000;2876.7730
741.0000;2872.7510
742.0000;2850.3850
743.0000;2832.0710
744.0000;2837.8810
745.0000;2852.1250
746.0000;2852.1050
747.0000;2846.9590
748.0000;2848.5780
749.0000;2851.2190
750.0000;2843.3100
751.0000;2828.9540
752.0000;2824.3250
753.0000;2833.4770
754.0000;2845.9620
755.0000;2856.7280
756.0000;2865.9230
757.0000;2871.7920
758.0000;2870.1170
759.0000;2858.3510
760.0000;2851.4130
761.0000;2866.9650
762.0000;2890.9120
763.0000;2904.2820
764.0000;2904.2320
765.0000;2896.3050
766.0000;2881.8060
767.0000;2871.0830
768.0000;2868.6630
769.0000;2871.4830
770.0000;2880.3340
771.0000;2898.2250
772.0000;2924.5840
773.0000;2944.8190
774.0000;2949.6270
775.0000;2942.7210
776.0000;2931.2700
777.0000;2925.4930
778.0000;2944.2900
779.0000;2971.3400
780.0000;2979.6530
781.0000;2973.9130
782.0000;2977.6150
783.0000;2988.4290
784.0000;3002.0230
785.0000;3014.0750
786.0000;3019.2840
787.0000;3014.8470
788.0000;3010.4910
789.0000;3011.6260
790.0000;3009.0880
791.0000;2997.5570
792.0000;2988.1760
793.0000;2986.9680
794.0000;2995.7240
795.0000;3016.2360
796.0000;3033.7070
797.0000;3025.4840
798.0000;3003.8310
799.0000;3003.0380
800.0000;3018.7190
801.0000;3027.8070
802.0000;3026.1490
803.0000;3017.1100
804.0000;3004.1490
805.0000;3005.8850
806.0000;3030.3610
807.0000;3053.9860
808.0000;3063.4200
809.0000;3057.0160
810.0000;3034.3640
811.0000;3013.2300
812.0000;3017.9730
813.0000;3029.7300
814.0000;3019.4900
815.0000;3001.0590
816.0000;2994.7010
817.0000;2995.4610
818.0000;2982.0470
819.0000;2965.6680
820.0000;2975.3620
821.0000;3008.2360
822.0000;3021.6140
823.0000;3004.6460
824.0000;2994.9660
825.0000;3007.2250
826.0000;3026.1870
827.0000;3045.3070
828.0000;3055.3110
829.0000;3049.2500
830.0000;3039.6520
831.0000;3045.8410
832.0000;3051.9890
833.0000;3039.4570
834.0000;3026.1780
835.0000;3034.7580
836.0000;3059.0910
837.0000;3083.6090
838.0000;3098.1420
839.0000;3090.8150
840.0000;3062.1040
841.0000;3036.6510
842.0000;3027.0130
843.0000;3040.3870
844.0000;3077.1670
845.0000;3108.5340
846.0000;3115.2690
847.0000;3120.2710
848.0000;3137.3460
849.0000;3150.1240
850.0000;3152.3040
851.0000;3149.5030
852.0000;3153.0870
853.0000;3154.6920
854.0000;3146.4480
855.0000;3140.8870
856.0000;3156.2600
857.0000;3182.1420
858.0000;3198.0530
859.0000;3202.0910
860.0000;3205.7400
861.0000;3205.8150
862.0000;3200.5880
863.0000;3193.3280
864.0000;3197.8370
865.0000;3216.5290
866.0000;3232.7470
867.0000;3238.1280
868.0000;3235.9140
869.0000;3227.5250
870.0000;3222.3440
871.0000;3227.7350
872.0000;3239.5890
873.0000;3253.8870
874.0000;3266.9030
875.0000;3276.4580
876.0000;3279.6390
877.0000;3280.1190
878.0000;3279.1420
879.0000;3288.4420
880.0000;3296.8570
881.0000;3285.2600
882.0000;3267.2260
883.0000;3276.8700
884.0000;3307.1020
885.0000;3324.5520
886.0000;3322.8610
887.0000;3316.8970
888.0000;3307.4270
889.0000;3291.9940
890.0000;3274.4320
891.0000;3267.1540
892.0000;3275.7890
893.0000;3275.4220
894.0000;3254.1710
895.0000;3247.6080
896.0000;3276.3450
897.0000;3303.3030
898.0000;3297.3300
899.0000;3289.2760
900.0000;3310.2070
901.0000;3334.0180
902.0000;3339.2410
903.0000;3335.4100
904.0000;3340.8990
905.0000;3350.2920
906.0000;3366.8820
907.0000;3378.1780
908.0000;3367.9420
909.0000;3343.8540
910.0000;3328.8020
911.0000;3331.4800
912.0000;3358.0650
913.0000;3398.7270
914.0000;3420.3630
915.0000;3412.7430
916.0000;3400.8220
917.0000;3391.1980
918.0000;3389.4180
919.0000;3399.0050
920.0000;3409.2950
921.0000;3414.5440
922.0000;3414.6920
923.0000;3409.2770
924.0000;3403.6760
925.0000;3401.6940
926.0000;3409.0720
927.0000;3429.0280
928.0000;3450.2690
929.0000;3460.3540
930.0000;3466.4120
931.0000;3484.5960
932.0000;3491.6670
933.0000;3464.0020
934.0000;3437.8680
935.0000;3469.1740
936.0000;3521.6290
937.0000;3532.8200
938.0000;3512.9670
939.0000;3497.1370
940.0000;3488.2120
941.0000;3497.3030
942.0000;3518.6280
943.0000;3527.7050
944.0000;3525.2660
945.0000;3534.4910
946.0000;3552.3770
947.0000;3560.8570
948.0000;3558.5030
949.0000;3568.7630
950.0000;3590.7460
951.0000;3599.3890
952.0000;3586.1010
953.0000;3571.8300
954.0000;3565.0000
955.0000;3562.0850
956.0000;3563.0160
957.0000;3560.8350
958.0000;3551.1630
959.0000;3539.6460
960.0000;3529.6330
961.0000;3525.3150
962.0000;3528.3240
963.0000;3533.8550
964.0000;3531.7690
965.0000;3544.1610
966.0000;3589.5670
967.0000;3630.3930
968.0000;3631.1390
969.0000;3610.1300
970.0000;3603.4020
971.0000;3601.9840
972.0000;3605.3950
973.0000;3609.0230
974.0000;3596.1840
975.0000;3589.6630
976.0000;3629.4370
977.0000;3677.8500
978.0000;3667.4380
979.0000;3621.5120
980.0000;3611.8270
981.0000;3630.5160
982.0000;3641.8080
983.0000;3648.5430
984.0000;3663.8230
985.0000;3678.2420
986.0000;3670.7360
987.0000;3649.8660
988.0000;3663.9550
989.0000;3706.2790
990.0000;3718.0120
991.0000;3692.4620
992.0000;3675.1150
993.0000;3678.6170
994.0000;3698.6550
995.0000;3732.4820
996.0000;3770.0830
997.0000;3798.1640
998.0000;3800.6830
999.0000;3772.6890
1000.0000;3751.8350
1001.0000;3757.3370
1002.0000;3774.2340
1003.0000;3796.4130
1004.0000;3821.6750
1005.0000;3844.0120
1006.0000;3849.4120
1007.0000;3832.7410
1008.0000;3812.1140
1009.0000;3801.7370
1010.0000;3811.2790
1011.0000;3846.1760
1012.0000;3873.8060
1013.0000;3868.0940
1014.0000;3856.4410
1015.0000;3860.0440
1016.0000;3873.2620
1017.0000;3895.0150
1018.0000;3912.9260
1019.0000;3917.5410
1020.0000;3910.5870
1021.0000;3897.4370
1022.0000;3892.4870
1023.0000;3914.9160
1024.0000;3938.3180
1025.0000;3934.4580
1026.0000;3918.4180
1027.0000;3911.6300
1028.0000;3905.7060
1029.0000;3889.7080
1030.0000;3884.6670
1031.0000;3908.5320
1032.0000;3939.2250
1033.0000;3947.7130
1034.0000;3940.9580
1035.0000;3936.7330
1036.0000;3935.4540
1037.0000;3944.3130
1038.0000;3959.7210
1039.0000;3974.0590
1040.0000;3987.5220
1041.0000;4006.4340
1042.0000;4020.7520
1043.0000;4026.3780
1044.0000;4023.5700
1045.0000;4026.3400
1046.0000;4030.1910
1047.0000;4031.3650
1048.0000;4033.7380
1049.0000;4046.4150
1050.0000;4062.3730
1051.0000;4068.2780
1052.0000;4069.6920
1053.0000;4088.3730
1054.0000;4111.4350
1055.0000;4118.7040
1056.0000;4114.6890
1057.0000;4125.6840
1058.0000;4140.8760
1059.0000;4138.5910
1060.0000;4131.0060
1061.0000;4153.9360
1062.0000;4191.7920
1063.0000;4206.6720
1064.0000;4201.3380
1065.0000;4209.2180
1066.0000;4222.3400
1067.0000;4226.2230
1068.0000;4225.3550
1069.0000;4239.4480
1070.0000;4263.3400
1071.0000;4286.0150
1072.0000;4302.2920
1073.0000;4314.6390
1074.0000;4326.2540
1075.0000;4364.5160
1076.0000;4412.1510
1077.0000;4437.9020
1078.0000;4440.0580
1079.0000;4457.6270
1080.0000;4483.2780
1081.0000;4509.0860
1082.0000;4531.3160
1083.0000;4564.8430
1084.0000;4595.4360
1085.0000;4610.4260
1086.0000;4610.3080
1087.0000;4631.2370
1088.0000;4658.6990
1089.0000;4660.5910
1090.0000;4646.9170
1091.0000;4665.6490
1092.0000;4704.9900
1093.0000;4733.6240
1094.0000;4743.6970
1095.0000;4744.5780
1096.0000;4738.6010
1097.0000;4749.7070
1098.0000;4770.6260
1099.0000;4786.5430
1100.0000;4792.0000
1101.0000;4785.2120
1102.0000;4778.4630
1103.0000;4805.2760
1104.0000;4854.8540
1105.0000;4904.9820
1106.0000;4936.4530
1107.0000;4938.9060
1108.0000;4920.3230
1109.0000;4932.1760
1110.0000;4958.0910
1111.0000;4963.4890
1112.0000;4957.4650
1113.0000;4965.2170
1114.0000;4984.0380
1115.0000;5011.0960
1116.0000;5041.1950
1117.0000;5079.8410
1118.0000;5098.6730
1119.0000;5069.2010
1120.0000;5023.7340
1121.0000;5033.4710
1122.0000;5071.8480
1123.0000;5082.2250
1124.0000;5084.3940
1125.0000;5110.6280
1126.0000;5141.6680
1127.0000;5159.6200
1128.0000;5167.8030
1129.0000;5184.3210
1130.0000;5202.0000
1131.0000;5225.4530
1132.0000;5246.1660
1133.0000;5264.9300
1134.0000;5276.3310
1135.0000;5288.6240
1136.0000;5297.3280
1137.0000;5306.5580
1138.0000;5321.9060
1139.0000;5352.4890
1140.0000;5395.3610
1141.0000;5454.0050
1142.0000;5491.6330
1143.0000;5480.8100
1144.0000;5465.3440
1145.0000;5494.0340
1146.0000;5536.3980
1147.0000;5572.3990
1148.0000;5600.9500
1149.0000;5619.6410
1150.0000;5630.2500
1151.0000;5640.6310
1152.0000;5657.0180
1153.0000;5686.1600
1154.0000;5719.9430
1155.0000;5753.8040
1156.0000;5789.9100
1157.0000;5826.3960
1158.0000;5839.1240
1159.0000;5821.2940
1160.0000;5824.5600
1161.0000;5871.7170
1162.0000;5929.4810
1163.0000;5977.9130
1164.0000;6015.8680
1165.0000;6035.4950
1166.0000;6059.9480
1167.0000;6090.0170
1168.0000;6111.8330
1169.0000;6120.3750
1170.0000;6138.3020
1171.0000;6162.3450
1172.0000;6171.1820
1173.0000;6167.8440
1174.0000;6196.7130
1175.0000;6251.1430
1176.0000;6295.9330
1177.0000;6319.7680
1178.0000;6344.7670
1179.0000;6363.3950
1180.0000;6384.2130
1181.0000;6406.4870
1182.0000;6452.7920
1183.0000;6497.2380
1184.0000;6508.8970
1185.0000;6496.8090
1186.0000;6512.5740
1187.0000;6539.1880
1188.0000;6559.8100
1189.0000;6576.6220
1190.0000;6606.5240
1191.0000;6627.3160
1192.0000;6627.2420
1193.0000;6620.1090
1194.0000;6634.1900
1195.0000;6653.5070
1196.0000;6664.7550
1197.0000;6683.5890
1198.0000;6725.0980
1199.0000;6761.2820
1200.0000;6775.8730
1201.0000;6786.1800
1202.0000;6807.3550
1203.0000;6830.8450
1204.0000;6854.7680
1205.0000;6889.1990
1206.0000;6932.0560
1207.0000;6951.6360
1208.0000;6935.9490
1209.0000;6934.2280
1210.0000;6961.9120
1211.0000;7003.2320
1212.0000;7043.4880
1213.0000;7065.9450
1214.0000;7064.0190
1215.0000;7073.4390
1216.0000;7097.1330
1217.0000;7132.1970
1218.0000;7169.4220
1219.0000;7200.9120
1220.0000;7215.4970
1221.0000;7218.2470
1222.0000;7213.7950
1223.0000;7230.1460
1224.0000;7259.6310
1225.0000;7288.8450
1226.0000;7316.7660
1227.0000;7357.4200
1228.0000;7381.8930
1229.0000;7371.9150
1230.0000;7356.2720
1231.0000;7378.1350
1232.0000;7421.1570
1233.0000;7477.7270
1234.0000;7509.0330
1235.0000;7489.5150
1236.0000;7464.9690
1237.0000;7471.0410
1238.0000;7516.1400
1239.0000;7599.5170
1240.0000;7665.8020
1241.0000;7682.8240
1242.0000;7692.3820
1243.0000;7701.8330
1244.0000;7704.7420
1245.0000;7706.4430
1246.0000;7738.9140
1247.0000;7792.7830
1248.0000;7823.9420
1249.0000;7825.6810
1250.0000;7831.4440
1251.0000;7840.5030
1252.0000;7859.6060
1253.0000;7888.0280
1254.0000;7932.9090
1255.0000;7972.2770
1256.0000;7986.3720
1257.0000;7986.9520
1258.0000;8009.4800
1259.0000;8046.8300
1260.0000;8104.0210
1261.0000;8145.6030
1262.0000;8148.0160
1263.0000;8145.1020
1264.0000;8166.3680
1265.0000;8185.6470
1266.0000;8193.8400
1267.0000;8203.1970
1268.0000;8219.7060
1269.0000;8268.8340
1270.0000;8341.9450
1271.0000;8359.7340
1272.0000;8314.3540
1273.0000;8296.2730
1274.0000;8316.9410
1275.0000;8355.4590
1276.0000;8394.2760
1277.0000;8395.9460
1278.0000;8379.7970
1279.0000;8405.8450
1280.0000;8463.4620
1281.0000;8543.4790
1282.0000;8606.3700
1283.0000;8627.9490
1284.0000;8629.4310
1285.0000;8657.1460
1286.0000;8693.2310
1287.0000;8734.6770
1288.0000;8781.1710
1289.0000;8831.2140
1290.0000;8874.2780
1291.0000;8906.3490
1292.0000;8980.8320
1293.0000;9094.7370
1294.0000;9176.6500
1295.0000;9198.6380
1296.0000;9225.7690
1297.0000;9257.9760
1298.0000;9308.5660
1299.0000;9368.8550
1300.0000;9451.3580
1301.0000;9530.6000
1302.0000;9602.5000
1303.0000;9650.1460
1304.0000;9692.0370
1305.0000;9750.0240
1306.0000;9872.5560
1307.0000;10001.3700
1308.0000;10100.7900
1309.0000;10181.1100
1310.0000;10260.4700
1311.0000;10336.5600
1312.0000;10414.9900
1313.0000;10524.5400
1314.0000;10653.8700
1315.0000;10732.5100
1316.0000;10755.9300
1317.0000;10878.9100
1318.0000;11058.2400
1319.0000;11154.3500
1320.0000;11175.2900
1321.0000;11276.3100
1322.0000;11402.7300
1323.0000;11543.4100
1324.0000;11656.1900
1325.0000;11744.7800
1326.0000;11838.2100
1327.0000;12002.4600
1328.0000;12134.3400
1329.0000;12189.3300
1330.0000;12239.3200
1331.0000;12321.7100
1332.0000;12436.7200
1333.0000;12568.7600
1334.0000;12715.3800
1335.0000;12834.2600
1336.0000;12926.9400
1337.0000;12973.8300
1338.0000;13056.8800
1339.0000;13147.9900
1340.0000;13258.6000
1341.0000;13358.0000
1342.0000;13480.4100
1343.0000;13557.4500
1344.0000;13571.9600
1345.0000;13602.5600
1346.0000;13731.9200
1347.0000;13844.6500
1348.0000;13873.5300
1349.0000;13903.4000
1350.0000;13961.2100
1351.0000;14028.1800
1352.0000;14095.5000
1353.0000;14199.5000
1354.0000;14298.4300
1355.0000;14337.9500
1356.0000;14314.0100
1357.0000;14310.6800
1358.0000;14321.0000
1359.0000;14344.8900
1360.0000;14400.0500
1361.0000;14499.6100
1362.0000;14594.4300
1363.0000;14647.0800
1364.0000;14688.2000
1365.0000;14735.9400
1366.0000;14777.1500
1367.0000;14802.7100
1368.0000;14796.6000
1369.0000;14771.5700
1370.0000;14804.8700
1371.0000;14881.1400
1372.0000;14929.4500
1373.0000;14946.2200
1374.0000;14970.9300
1375.0000;14986.1300
1376.0000;14998.3800
1377.0000;15008.0300
1378.0000;15026.0000
1379.0000;15038.5500
1380.0000;15040.7600
1381.0000;15035.8300
1382.0000;15027.6100
1383.0000;15021.1800
1384.0000;15022.7500
1385.0000;15037.9800
1386.0000;15068.5000
1387.0000;15126.4200
1388.0000;15168.5700
1389.0000;15150.4200
1390.0000;15079.3900
1391.0000;14995.7600
1392.0000;14949.3900
1393.0000;14986.4600
1394.0000;15014.9400
1395.0000;14968.8600
1396.0000;14933.6000
1397.0000;14938.1100
1398.0000;14942.6400
1399.0000;14930.4300
1400.0000;14866.8000
1401.0000;14776.0600
1402.0000;14721.7400
1403.0000;14715.7900
1404.0000;14723.0500
1405.0000;14732.9700
1406.0000;14704.0300
1407.0000;14669.5500
1408.0000;14656.2700
1409.0000;14651.2100
1410.0000;14645.0000
1411.0000;14583.0000
1412.0000;14476.7600
1413.0000;14435.5900
1414.0000;14469.8500
1415.0000;14456.4400
1416.0000;14416.4400
1417.0000;14420.1100
1418.0000;14405.0500
1419.0000;14274.0000
1420.0000;14149.2900
1421.0000;14137.9000
1422.0000;14113.2700
1423.0000;14003.8700
1424.0000;13951.5200
1425.0000;13990.7400
1426.0000;13961.9900
1427.0000;13867.9500
1428.0000;13843.0300
1429.0000;13858.5100
1430.0000;13776.5500
1431.0000;13662.9900
1432.0000;13593.9700
1433.0000;13562.7500
1434.0000;13539.1300
1435.0000;13511.5300
1436.0000;13460.5800
1437.0000;13414.5500
1438.0000;13382.6800
1439.0000;13315.2200
1440.0000;13231.1900
1441.0000;13180.6500
1442.0000;13167.8900
1443.0000;13132.2500
1444.0000;13087.1800
1445.0000;13024.1100
1446.0000;12961.7800
1447.0000;12909.0700
1448.0000;12844.9100
1449.0000;12763.2400
1450.0000;12704.7400
1451.0000;12686.8100
1452.0000;12659.7000
1453.0000;12626.4900
1454.0000;12589.1700
1455.0000;12548.5200
1456.0000;12477.5200
1457.0000;12416.7700
1458.0000;12391.5900
1459.0000;12367.9000
1460.0000;12312.6200
1461.0000;12243.9000
1462.0000;12177.4200
1463.0000;12137.9700
1464.0000;12128.2600
1465.0000;12080.1100
1466.0000;12014.7500
1467.0000;11975.5100
1468.0000;11943.5500
1469.0000;11856.3800
1470.0000;11796.8300
1471.0000;11808.2500
1472.0000;11840.4500
1473.0000;11853.5800
1474.0000;11822.8100
1475.0000;11750.5900
1476.0000;11704.7300
1477.0000;11694.5300
1478.0000;11677.9500
1479.0000;11663.9500
1480.0000;11644.7000
1481.0000;11619.0500
1482.0000;11578.8100
1483.0000;11547.4000
1484.0000;11536.1000
1485.0000;11529.4600
1486.0000;11521.4100
1487.0000;11498.3700
1488.0000;11468.0000
1489.0000;11449.3400
1490.0000;11439.4800
1491.0000;11408.5800
1492.0000;11399.0800
1493.0000;11438.5200
1494.0000;11443.6700
1495.0000;11377.6900
1496.0000;11350.2500
1497.0000;11381.8600
1498.0000;11371.3200
1499.0000;11321.1000
1500.0000;11268.5700
1501.0000;11247.5700
1502.0000;11284.6300
1503.0000;11333.5300
1504.0000;11339.6500
1505.0000;11297.9100
1506.0000;11214.6600
1507.0000;11140.6000
1508.0000;11107.0800
1509.0000;11093.7300
1510.0000;11099.6600
1511.0000;11090.2300
1512.0000;11056.3400
1513.0000;10980.9500
1514.0000;10910.8400
1515.0000;10881.3000
1516.0000;10916.4900
1517.0000;11004.1400
1518.0000;11012.7600
1519.0000;10936.5000
1520.0000;10908.9500
1521.0000;10911.8000
1522.0000;10869.7600
1523.0000;10848.7100
1524.0000;10896.7100
1525.0000;10935.2900
1526.0000;10915.8000
1527.0000;10885.5700
1528.0000;10862.4600
1529.0000;10853.9500
1530.0000;10855.6800
1531.0000;10843.1400
1532.0000;10802.6200
1533.0000;10709.8900
1534.0000;10647.2600
1535.0000;10672.4500
1536.0000;10699.5000
1537.0000;10690.1900
1538.0000;10665.8300
1539.0000;10636.4100
1540.0000;10621.1200
1541.0000;10620.8300
1542.0000;10613.5000
1543.0000;10617.1300
1544.0000;10639.5600
1545.0000;10643.0900
1546.0000;10609.0300
1547.0000;10558.4700
1548.0000;10517.5000
1549.0000;10533.6100
1550.0000;10576.3500
1551.0000;10549.0500
1552.0000;10505.6500
1553.0000;10508.3800
1554.0000;10501.3100
1555.0000;10459.5300
1556.0000;10439.5000
1557.0000;10452.9900
1558.0000;10459.8200
1559.0000;10460.8500
1560.0000;10466.0200
1561.0000;10470.1200
1562.0000;10468.1800
1563.0000;10477.4500
1564.0000;10504.2500
1565.0000;10501.0100
1566.0000;10455.3200
1567.0000;10395.3100
1568.0000;10340.6700
1569.0000;10289.1700
1570.0000;10266.2500
1571.0000;10264.7100
1572.0000;10291.2700
1573.0000;10331.6600
1574.0000;10372.2000
1575.0000;10394.4200
1576.0000;10399.1500
1577.0000;10386.2200
1578.0000;10392.0800
1579.0000;10371.1500
1580.0000;10275.4500
1581.0000;10215.0100
1582.0000;10250.7800
1583.0000;10255.8800
1584.0000;10209.4900
1585.0000;10203.3000
1586.0000;10219.4200
1587.0000;10182.2700
1588.0000;10143.2100
1589.0000;10155.1700
1590.0000;10142.7400
1591.0000;10073.0000
1592.0000;10040.1600
1593.0000;10058.5700
1594.0000;10040.8600
1595.0000;10012.3300
1596.0000;10020.7300
1597.0000;10036.2300
1598.0000;10025.8700
1599.0000;10006.0500
1600.0000;9987.3060
1601.0000;9985.5340
1602.0000;9993.4090
1603.0000;9970.4870
1604.0000;9919.7040
1605.0000;9848.7620
1606.0000;9794.8870
1607.0000;9783.1000
1608.0000;9780.0720
1609.0000;9773.7470
1610.0000;9770.6280
1611.0000;9769.0760
1612.0000;9758.1810
1613.0000;9749.3100
1614.0000;9760.7230
1615.0000;9720.2900
1616.0000;9606.6120
1617.0000;9554.2990
1618.0000;9591.3930
1619.0000;9599.5110
1620.0000;9593.6670
1621.0000;9615.8030
1622.0000;9610.8530
1623.0000;9541.0030
1624.0000;9505.9170
1625.0000;9540.8130
1626.0000;9546.2310
1627.0000;9515.9230
1628.0000;9487.5410
1629.0000;9457.8580
1630.0000;9420.6650
1631.0000;9399.2490
1632.0000;9403.0780
1633.0000;9400.7100
1634.0000;9397.8940
1635.0000;9456.6870
1636.0000;9515.3600
1637.0000;9474.2290
1638.0000;9396.3670
1639.0000;9358.7160
1640.0000;9328.4150
1641.0000;9312.3470
1642.0000;9340.2290
1643.0000;9388.3480
1644.0000;9386.2020
1645.0000;9354.8830
1646.0000;9330.2010
1647.0000;9326.8680
1648.0000;9351.1880
1649.0000;9353.4140
1650.0000;9336.3900
1651.0000;9358.3400
1652.0000;9376.0090
1653.0000;9322.6330
1654.0000;9289.3890
1655.0000;9334.7730
1656.0000;9353.9160
1657.0000;9329.3250
1658.0000;9324.4950
1659.0000;9343.8250
1660.0000;9381.8500
1661.0000;9426.9360
1662.0000;9463.1290
1663.0000;9451.2090
1664.0000;9391.4220
1665.0000;9365.7830
1666.0000;9373.9010
1667.0000;9366.1910
1668.0000;9355.1190
1669.0000;9343.5700
1670.0000;9326.1420
1671.0000;9307.0830
1672.0000;9306.6850
1673.0000;9319.2840
1674.0000;9311.9800
1675.0000;9295.2260
1676.0000;9282.8010
1677.0000;9259.6350
1678.0000;9226.1050
1679.0000;9200.8830
1680.0000;9191.5710
1681.0000;9181.2860
1682.0000;9175.8710
1683.0000;9173.9330
1684.0000;9143.4650
1685.0000;9077.8840
1686.0000;9021.5990
1687.0000;8997.2040
1688.0000;8989.1740
1689.0000;8991.5680
1690.0000;8974.4780
1691.0000;8949.5790
1692.0000;8923.1530
1693.0000;8894.4740
1694.0000;8868.1460
1695.0000;8829.2580
1696.0000;8801.1790
1697.0000;8795.3190
1698.0000;8788.7830
1699.0000;8767.3920
1700.0000;8754.9190
1701.0000;8741.6040
1702.0000;8671.9230
1703.0000;8605.2930
1704.0000;8606.3610
1705.0000;8612.5670
1706.0000;8588.8120
1707.0000;8554.7330
1708.0000;8529.9140
1709.0000;8543.4760
1710.0000;8567.5210
1711.0000;8557.7130
1712.0000;8530.2170
1713.0000;8496.4430
1714.0000;8467.1800
1715.0000;8453.1770
1716.0000;8450.4680
1717.0000;8447.0310
1718.0000;8420.9660
1719.0000;8387.7620
1720.0000;8359.5690
1721.0000;8347.5070
1722.0000;8349.7000
1723.0000;8336.1710
1724.0000;8320.4620
1725.0000;8310.3840
1726.0000;8317.9030
1727.0000;8340.6510
1728.0000;8350.7260
1729.0000;8344.0580
1730.0000;8331.3190
1731.0000;8320.9660
1732.0000;8323.2960
1733.0000;8336.6030
1734.0000;8345.9010
1735.0000;8303.5240
1736.0000;8251.7440
1737.0000;8265.0000
1738.0000;8284.7930
1739.0000;8271.2670
1740.0000;8227.9240
1741.0000;8188.8100
1742.0000;8243.2680
1743.0000;8299.3650
1744.0000;8236.6080
1745.0000;8200.6900
1746.0000;8250.7990
1747.0000;8280.7890
1748.0000;8274.9450
1749.0000;8247.6430
1750.0000;8222.8130
1751.0000;8230.1810
1752.0000;8241.7960
1753.0000;8244.0330
1754.0000;8231.7880
1755.0000;8206.1340
1756.0000;8174.3990
1757.0000;8149.3910
1758.0000;8139.9190
1759.0000;8133.4720
1760.0000;8129.1320
1761.0000;8122.7630
1762.0000;8114.7970
1763.0000;8103.4160
1764.0000;8088.0410
1765.0000;8074.3050
1766.0000;8078.5120
1767.0000;8102.6670
1768.0000;8145.9370
1769.0000;8144.5630
1770.0000;8060.7160
1771.0000;8033.5680
1772.0000;8086.0250
1773.0000;8115.7090
1774.0000;8108.0070
1775.0000;8056.1000
1776.0000;8016.6310
1777.0000;8023.9910
1778.0000;8047.2290
1779.0000;8060.2110
1780.0000;8008.1030
1781.0000;7965.2380
1782.0000;7995.7220
1783.0000;8032.3800
1784.0000;8046.2290
1785.0000;8042.4430
1786.0000;8028.3600
1787.0000;8031.4960
1788.0000;8011.6500
1789.0000;7963.2990
1790.0000;7949.7820
1791.0000;7974.8970
1792.0000;7992.8600
1793.0000;7999.8880
1794.0000;7988.9610
1795.0000;7976.3780
1796.0000;7970.9160
1797.0000;7974.4890
1798.0000;7972.9420
1799.0000;7942.2450
1800.0000;7947.9480
1801.0000;8005.5700
1802.0000;8022.4720
1803.0000;7992.7860
1804.0000;7955.1590
1805.0000;7935.5680
1806.0000;7955.7890
1807.0000;7988.0190
1808.0000;8013.1780
1809.0000;8018.0850
1810.0000;8008.3770
1811.0000;8004.4200
1812.0000;8001.7170
1813.0000;8003.6340
1814.0000;8020.5710
1815.0000;8035.1510
1816.0000;8020.2620
1817.0000;8015.2990
1818.0000;8038.9820
1819.0000;8044.4960
1820.0000;8035.3800
1821.0000;8047.9710
1822.0000;8057.4470
1823.0000;8046.9280
1824.0000;8023.5890
1825.0000;8004.5260
1826.0000;8024.8230
1827.0000;8051.5450
1828.0000;8040.7840
1829.0000;8032.4670
1830.0000;8040.7070
1831.0000;8056.2020
1832.0000;8059.7030
1833.0000;8026.9670
1834.0000;7997.2080
1835.0000;7998.6080
1836.0000;8036.0580
1837.0000;8072.0310
1838.0000;8027.3720
1839.0000;7980.7430
1840.0000;7990.6180
1841.0000;7998.7770
1842.0000;7996.9010
1843.0000;7987.3160
1844.0000;7987.0180
1845.0000;8009.0780
1846.0000;8001.2090
1847.0000;7971.5270
1848.0000;8006.2580
1849.0000;8037.7370
1850.0000;7983.3670
1851.0000;7949.7530
1852.0000;7971.8240
1853.0000;8001.2070
1854.0000;8007.4300
1855.0000;7955.2120
1856.0000;7903.8930
1857.0000;7897.3440
1858.0000;7948.8110
1859.0000;8013.7970
1860.0000;8007.1990
1861.0000;7964.5420
1862.0000;7923.8500
1863.0000;7927.7130
1864.0000;7955.6300
1865.0000;7925.6510
1866.0000;7900.3450
1867.0000;7915.6270
1868.0000;7902.9900
1869.0000;7870.3550
1870.0000;7865.9190
1871.0000;7878.8870
1872.0000;7892.2300
1873.0000;7887.1630
1874.0000;7862.0210
1875.0000;7832.6460
1876.0000;7824.0440
1877.0000;7850.9820
1878.0000;7821.1230
1879.0000;7752.8030
1880.0000;7782.5180
1881.0000;7839.4890
1882.0000;7832.0020
1883.0000;7815.1710
1884.0000;7804.2950
1885.0000;7801.0240
1886.0000;7792.7860
1887.0000;7764.3840
1888.0000;7762.8330
1889.0000;7792.7560
1890.0000;7801.3110
1891.0000;7799.5170
1892.0000;7806.9980
1893.0000;7791.7140
1894.0000;7763.3010
1895.0000;7799.4960
1896.0000;7834.7710
1897.0000;7782.4340
1898.0000;7725.9270
1899.0000;7707.5540
1900.0000;7723.6490
1901.0000;7735.8090
1902.0000;7684.3560
1903.0000;7674.2310
1904.0000;7722.4260
1905.0000;7724.9640
1906.0000;7689.0180
1907.0000;7642.9880
1908.0000;7620.2360
1909.0000;7632.9850
1910.0000;7634.7190
1911.0000;7631.7320
1912.0000;7631.6350
1913.0000;7600.7340
1914.0000;7545.6040
1915.0000;7526.3210
1916.0000;7529.0700
1917.0000;7518.0870
1918.0000;7517.9560
1919.0000;7530.6300
1920.0000;7542.5860
1921.0000;7536.1730
1922.0000;7499.7000
1923.0000;7483.4940
1924.0000;7493.5100
1925.0000;7471.0720
1926.0000;7428.9050
1927.0000;7384.5000
1928.0000;7349.6230
1929.0000;7336.2740
1930.0000;7330.6230
1931.0000;7344.6490
1932.0000;7371.6990
1933.0000;7349.9980
1934.0000;7286.7110
1935.0000;7257.5340
1936.0000;7245.9820
1937.0000;7231.9700
1938.0000;7205.5360
1939.0000;7176.6670
1940.0000;7168.3260
1941.0000;7151.7210
1942.0000;7112.1340
1943.0000;7135.6230
1944.0000;7180.8920
1945.0000;7124.8780
1946.0000;7059.7710
1947.0000;7046.4500
1948.0000;7025.0230
1949.0000;6998.5980
1950.0000;6965.6460
1951.0000;6958.2980
1952.0000;6974.3650
1953.0000;6934.1270
1954.0000;6861.1860
1955.0000;6799.3280
1956.0000;6777.3750
1957.0000;6800.7770
1958.0000;6816.1070
1959.0000;6802.6560
1960.0000;6744.1070
1961.0000;6715.0040
1962.0000;6731.1290
1963.0000;6727.5420
1964.0000;6716.4280
1965.0000;6703.5410
1966.0000;6678.2260
1967.0000;6643.3330
1968.0000;6596.9270
1969.0000;6566.7790
1970.0000;6564.9990
1971.0000;6560.3370
1972.0000;6553.5440
1973.0000;6549.7510
1974.0000;6532.8330
1975.0000;6500.0840
1976.0000;6464.7650
1977.0000;6449.9430
1978.0000;6468.8940
1979.0000;6479.2800
1980.0000;6460.7070
1981.0000;6420.3790
1982.0000;6392.7340
1983.0000;6409.1040
1984.0000;6399.4580
1985.0000;6358.6650
1986.0000;6319.1990
1987.0000;6304.3790
1988.0000;6320.6950
1989.0000;6308.6910
1990.0000;6275.7730
1991.0000;6257.9360
1992.0000;6226.1380
1993.0000;6184.4600
1994.0000;6184.8230
1995.0000;6212.2700
1996.0000;6222.1160
1997.0000;6189.4330
1998.0000;6124.9790
1999.0000;6098.9590
2000.0000;6079.1920
2001.0000;6035.5950
2002.0000;6017.0250
2003.0000;6019.5230
2004.0000;5987.0050
2005.0000;5990.4800
2006.0000;6040.8710
2007.0000;6008.8360
2008.0000;5942.7680
2009.0000;5938.7310
2010.0000;5952.4330
2011.0000;5968.6520
2012.0000;5990.6530
2013.0000;5986.8430
2014.0000;5941.1470
2015.0000;5907.7920
2016.0000;5887.1600
2017.0000;5829.5910
2018.0000;5818.1390
2019.0000;5872.8220
2020.0000;5881.9460
2021.0000;5857.4740
2022.0000;5842.3600
2023.0000;5807.0950
2024.0000;5762.3730
2025.0000;5732.1310
2026.0000;5737.8900
2027.0000;5774.1590
2028.0000;5771.7500
2029.0000;5739.0350
2030.0000;5730.6170
2031.0000;5712.9020
2032.0000;5686.7220
2033.0000;5698.5260
2034.0000;5702.8560
2035.0000;5647.2510
2036.0000;5631.2270
2037.0000;5648.2330
2038.0000;5591.2080
2039.0000;5569.2980
2040.0000;5620.6350
2041.0000;5584.5130
2042.0000;5516.1540
2043.0000;5520.6980
2044.0000;5530.2280
2045.0000;5523.6130
2046.0000;5501.1920
2047.0000;5495.0850
2048.0000;5518.8930
2049.0000;5474.9090
2050.0000;5411.1670
2051.0000;5427.7700
2052.0000;5445.5200
2053.0000;5436.9930
2054.0000;5437.8810
2055.0000;5442.3090
2056.0000;5444.3870
2057.0000;5441.1770
2058.0000;5425.8410
2059.0000;5390.3480
2060.0000;5381.2070
2061.0000;5410.7300
2062.0000;5424.0130
2063.0000;5421.3340
2064.0000;5407.8100
2065.0000;5378.6750
2066.0000;5346.4240
2067.0000;5325.8900
2068.0000;5325.5470
2069.0000;5337.6030
2070.0000;5323.4080
2071.0000;5304.8680
2072.0000;5307.4830
2073.0000;5312.1300
2074.0000;5309.3680
2075.0000;5286.0660
2076.0000;5290.1050
2077.0000;5324.7860
2078.0000;5298.3350
2079.0000;5261.9040
2080.0000;5277.9490
2081.0000;5299.8290
2082.0000;5316.8410
2083.0000;5331.0050
2084.0000;5311.7550
2085.0000;5266.7530
2086.0000;5267.0830
2087.0000;5282.2160
2088.0000;5273.5150
2089.0000;5276.0240
2090.0000;5279.2960
2091.0000;5258.6900
2092.0000;5216.3430
2093.0000;5173.6370
2094.0000;5169.4820
2095.0000;5173.7600
2096.0000;5154.4950
2097.0000;5160.3450
2098.0000;5194.1720
2099.0000;5239.7660
2100.0000;5246.4300
2101.0000;5201.3470
2102.0000;5143.6540
2103.0000;5125.6580
2104.0000;5167.5160
2105.0000;5157.0450
2106.0000;5127.7120
2107.0000;5142.2580
2108.0000;5146.0460
2109.0000;5133.7660
2110.0000;5131.3380
2111.0000;5127.2220
2112.0000;5119.0390
2113.0000;5120.1770
2114.0000;5117.2080
2115.0000;5098.0380
2116.0000;5087.1970
2117.0000;5093.3060
2118.0000;5114.6140
2119.0000;5104.8440
2120.0000;5060.7770
2121.0000;5037.1090
2122.0000;5035.3580
2123.0000;5046.0610
2124.0000;5035.3640
2125.0000;5010.4120
2126.0000;4989.7550
2127.0000;4977.0310
2128.0000;4973.6240
2129.0000;4967.3600
2130.0000;4959.9860
2131.0000;4952.2020
2132.0000;4948.7390
2133.0000;4945.0740
2134.0000;4936.1500
2135.0000;4925.6390
2136.0000;4925.3500
2137.0000;4945.1220
2138.0000;4965.8490
2139.0000;4968.2290
2140.0000;4942.5100
2141.0000;4904.7380
2142.0000;4874.4460
2143.0000;4848.5640
2144.0000;4836.0060
2145.0000;4833.5140
2146.0000;4834.6510
2147.0000;4839.8620
2148.0000;4848.5640
2149.0000;4852.5440
2150.0000;4844.3630
2151.0000;4816.4950
2152.0000;4805.6410
2153.0000;4823.9350
2154.0000;4821.0510
2155.0000;4810.2390
2156.0000;4807.3330
2157.0000;4814.1330
2158.0000;4811.7200
2159.0000;4776.3200
2160.0000;4787.0740
2161.0000;4828.9610
2162.0000;4796.5270
2163.0000;4781.1990
2164.0000;4814.4500
2165.0000;4825.8940
2166.0000;4823.2070
2167.0000;4817.6970
2168.0000;4823.0700
2169.0000;4830.3750
2170.0000;4826.4230
2171.0000;4833.4000
2172.0000;4842.1520
2173.0000;4828.0520
2174.0000;4819.2570
2175.0000;4825.2200
2176.0000;4833.2930
2177.0000;4827.4870
2178.0000;4804.2420
2179.0000;4793.8830
2180.0000;4800.9600
2181.0000;4818.2740
2182.0000;4817.7190
2183.0000;4799.8400
2184.0000;4781.9940
2185.0000;4755.4120
2186.0000;4746.8820
2187.0000;4799.9440
2188.0000;4816.2270
2189.0000;4774.3570
2190.0000;4771.1380
2191.0000;4763.3980
2192.0000;4737.7940
2193.0000;4750.8200
2194.0000;4769.9340
2195.0000;4755.6090
2196.0000;4714.9110
2197.0000;4692.8120
2198.0000;4737.9020
2199.0000;4753.0880
2200.0000;4731.7950
2201.0000;4726.9510
2202.0000;4723.5970
2203.0000;4720.9930
2204.0000;4723.2560
2205.0000;4717.0850
2206.0000;4701.7200
2207.0000;4703.8550
2208.0000;4700.3270
2209.0000;4678.3020
2210.0000;4677.4820
2211.0000;4687.3280
2212.0000;4685.3520
2213.0000;4667.6170
2214.0000;4660.0880
2215.0000;4697.2110
2216.0000;4715.7540
2217.0000;4708.0680
2218.0000;4712.3540
2219.0000;4687.8810
2220.0000;4649.7210
2221.0000;4665.3180
2222.0000;4684.8040
2223.0000;4678.2370
2224.0000;4668.4930
2225.0000;4645.9380
2226.0000;4620.0840
2227.0000;4649.0360
2228.0000;4675.3460
2229.0000;4637.1060
2230.0000;4591.6000
2231.0000;4573.5440
2232.0000;4603.3820
2233.0000;4630.8520
2234.0000;4637.5220
2235.0000;4626.0780
2236.0000;4610.6820
2237.0000;4601.9030
2238.0000;4601.3110
2239.0000;4607.4080
2240.0000;4613.3730
2241.0000;4609.2980
2242.0000;4602.7030
2243.0000;4594.1340
2244.0000;4560.7940
2245.0000;4545.6100
2246.0000;4567.8230
2247.0000;4575.4540
2248.0000;4570.1630
2249.0000;4560.5110
2250.0000;4563.2010
2251.0000;4572.7220
2252.0000;4578.4560
2253.0000;4593.9810
2254.0000;4596.9510
2255.0000;4566.5970
2256.0000;4549.9870
2257.0000;4554.2970
2258.0000;4560.9520
2259.0000;4549.1180
2260.0000;4536.6120
2261.0000;4569.3260
2262.0000;4575.6560
2263.0000;4545.4960
2264.0000;4525.1760
2265.0000;4553.4680
2266.0000;4604.9640
2267.0000;4574.7830
2268.0000;4534.7550
2269.0000;4530.7330
2270.0000;4547.4590
2271.0000;4564.1040
2272.0000;4562.1480
2273.0000;4556.1560
2274.0000;4547.1790
2275.0000;4543.0780
2276.0000;4559.0750
2277.0000;4572.1020
2278.0000;4561.8270
2279.0000;4553.1310
2280.0000;4532.5000
2281.0000;4498.0640
2282.0000;4505.8810
2283.0000;4529.8900
2284.0000;4524.2070
2285.0000;4509.9310
2286.0000;4494.0230
2287.0000;4483.8520
2288.0000;4456.4950
2289.0000;4446.1250
2290.0000;4488.6500
2291.0000;4510.5060
2292.0000;4499.1080
2293.0000;4477.0090
2294.0000;4476.2410
2295.0000;4493.4420
2296.0000;4498.9660
2297.0000;4474.5750
2298.0000;4437.6210
2299.0000;4430.0650
2300.0000;4443.8960
2301.0000;4450.7430
2302.0000;4405.0850
2303.0000;4396.8600
2304.0000;4441.8210
2305.0000;4489.6940
2306.0000;4473.2520
2307.0000;4405.0130
2308.0000;4383.5800
2309.0000;4386.2280
2310.0000;4393.1840
2311.0000;4371.9380
2312.0000;4359.0660
2313.0000;4355.8860
2314.0000;4319.0050
2315.0000;4305.5770
2316.0000;4325.6250
2317.0000;4331.1280
2318.0000;4308.4920
2319.0000;4275.1440
2320.0000;4287.7760
2321.0000;4310.2760
2322.0000;4315.9960
2323.0000;4301.5790
2324.0000;4279.5050
2325.0000;4263.0020
2326.0000;4246.6820
2327.0000;4237.3810
2328.0000;4237.0020
2329.0000;4241.7000
2330.0000;4244.8530
2331.0000;4243.3860
2332.0000;4248.1580
2333.0000;4237.2560
2334.0000;4212.2710
2335.0000;4197.2300
2336.0000;4210.4650
2337.0000;4236.4790
2338.0000;4215.4140
2339.0000;4212.8570
2340.0000;4227.0590
2341.0000;4163.5940
2342.0000;4143.3990
2343.0000;4191.5440
2344.0000;4196.0970
2345.0000;4193.9350
2346.0000;4191.8850
2347.0000;4177.2910
2348.0000;4159.0470
2349.0000;4140.2200
2350.0000;4111.1160
2351.0000;4080.7330
2352.0000;4060.1480
2353.0000;4052.5370
2354.0000;4040.1570
2355.0000;4017.5260
2356.0000;3989.3780
2357.0000;3974.0540
2358.0000;3964.1920
2359.0000;3928.7260
2360.0000;3911.4230
2361.0000;3919.1180
2362.0000;3926.4630
2363.0000;3912.2410
2364.0000;3872.1460
2365.0000;3819.9400
2366.0000;3787.0730
2367.0000;3780.8130
2368.0000;3780.3300
2369.0000;3759.2860
2370.0000;3736.8720
2371.0000;3743.3540
2372.0000;3741.1040
2373.0000;3724.4880
2374.0000;3701.1600
2375.0000;3698.5990
2376.0000;3709.3500
2377.0000;3710.5970
2378.0000;3680.1730
2379.0000;3668.6030
2380.0000;3708.5540
2381.0000;3697.5660
2382.0000;3690.4600
2383.0000;3725.1110
2384.0000;3719.0750
2385.0000;3704.8890
2386.0000;3714.3230
2387.0000;3751.9900
2388.0000;3778.5530
2389.0000;3770.0000
2390.0000;3749.8680
2391.0000;3736.5590
2392.0000;3740.6800
2393.0000;3743.3270
2394.0000;3759.0710
2395.0000;3772.5620
2396.0000;3748.3560
2397.0000;3746.5250
2398.0000;3774.9610
2399.0000;3795.7920
2400.0000;3803.2000
2401.0000;3804.3300
2402.0000;3818.7930
2403.0000;3800.3110
2404.0000;3788.3170
2405.0000;3833.8590
2406.0000;3845.3950
2407.0000;3842.7060
2408.0000;3859.1010
2409.0000;3839.8150
2410.0000;3836.3500
2411.0000;3879.3800
2412.0000;3880.1960
2413.0000;3872.3060
2414.0000;3878.6570
2415.0000;3863.9920
2416.0000;3883.0340
2417.0000;3927.8360
2418.0000;3905.8570
2419.0000;3883.5740
2420.0000;3878.5280
2421.0000;3858.0240
2422.0000;3858.7130
2423.0000;3867.9030
2424.0000;3847.0910
2425.0000;3842.5980
2426.0000;3862.4300
2427.0000;3889.6170
2428.0000;3870.3020
2429.0000;3837.6840
2430.0000;3840.5970
2431.0000;3864.0210
2432.0000;3861.2860
2433.0000;3818.1710
2434.0000;3824.0520
2435.0000;3835.8750
2436.0000;3825.4990
2437.0000;3801.7550
2438.0000;3801.9920
2439.0000;3825.7810
2440.0000;3829.7720
2441.0000;3826.1720
2442.0000;3807.6240
2443.0000;3770.2310
2444.0000;3763.4700
2445.0000;3781.7500
2446.0000;3792.0000
2447.0000;3784.1160
2448.0000;3778.5100
2449.0000;3795.0230
2450.0000;3828.6300
2451.0000;3811.5980
2452.0000;3745.5590
2453.0000;3752.6280
2454.0000;3759.3070
2455.0000;3748.8150
2456.0000;3758.6730
2457.0000;3747.1020
2458.0000;3726.1640
2459.0000;3730.0320
2460.0000;3738.0160
2461.0000;3748.5160
2462.0000;3760.4170
2463.0000;3782.7660
2464.0000;3774.3980
2465.0000;3733.3140
2466.0000;3747.8300
2467.0000;3752.4670
2468.0000;3731.3930
2469.0000;3737.5760
2470.0000;3766.4850
2471.0000;3772.8160
2472.0000;3706.3790
2473.0000;3715.9410
2474.0000;3756.2600
2475.0000;3737.5050
2476.0000;3745.6680
2477.0000;3763.2890
2478.0000;3763.2470
2479.0000;3725.9860
2480.0000;3701.0470
2481.0000;3709.7080
2482.0000;3716.4380
2483.0000;3731.1640
2484.0000;3721.5130
2485.0000;3656.4280
2486.0000;3651.5860
2487.0000;3693.2620
2488.0000;3718.8170
2489.0000;3693.6270
2490.0000;3665.4880
2491.0000;3670.3580
2492.0000;3673.9010
2493.0000;3675.3560
2494.0000;3675.8290
2495.0000;3683.0640
2496.0000;3657.5670
2497.0000;3634.4420
2498.0000;3659.2250
2499.0000;3652.6450
2500.0000;3630.4640
2501.0000;3620.9910
2502.0000;3633.4790
2503.0000;3631.4570
2504.0000;3610.7680
2505.0000;3613.3290
2506.0000;3611.3040
2507.0000;3607.7240
2508.0000;3613.1810
2509.0000;3601.9130
2510.0000;3561.2270
2511.0000;3512.7050
2512.0000;3536.8290
2513.0000;3573.3410
2514.0000;3570.2210
2515.0000;3529.1320
2516.0000;3497.9950
2517.0000;3494.7530
2518.0000;3504.5080
2519.0000;3506.0850
2520.0000;3511.7520
2521.0000;3520.6860
2522.0000;3478.9700
2523.0000;3439.1270
2524.0000;3440.3830
2525.0000;3477.6010
2526.0000;3484.9370
2527.0000;3455.2800
2528.0000;3424.5230
2529.0000;3431.0550
2530.0000;3443.8780
2531.0000;3434.3330
2532.0000;3433.3910
2533.0000;3429.7590
2534.0000;3420.5780
2535.0000;3409.2720
2536.0000;3417.3400
2537.0000;3426.3870
2538.0000;3409.3250
2539.0000;3374.1290
2540.0000;3358.6000
2541.0000;3371.9070
2542.0000;3362.7190
2543.0000;3370.3060
2544.0000;3390.6050
2545.0000;3398.2390
2546.0000;3410.3580
2547.0000;3412.7410
2548.0000;3395.3360
2549.0000;3365.2830
2550.0000;3358.9390
2551.0000;3378.1370
2552.0000;3380.6080
2553.0000;3373.6310
2554.0000;3364.8850
2555.0000;3362.1760
2556.0000;3346.1990
2557.0000;3351.4930
2558.0000;3373.5110
2559.0000;3347.3840
2560.0000;3350.6110
2561.0000;3374.5910
2562.0000;3369.1280
2563.0000;3345.1480
2564.0000;3325.5730
2565.0000;3328.5120
2566.0000;3338.9960
2567.0000;3344.4550
2568.0000;3343.6860
2569.0000;3346.2760
2570.0000;3325.8440
2571.0000;3310.4070
2572.0000;3321.3330
2573.0000;3324.5050
2574.0000;3324.5590
2575.0000;3318.6200
2576.0000;3303.5490
2577.0000;3297.4510
2578.0000;3289.7460
2579.0000;3277.8380
2580.0000;3309.7050
2581.0000;3326.6030
2582.0000;3306.2780
2583.0000;3279.2760
2584.0000;3295.1060
2585.0000;3313.2460
2586.0000;3290.1530
2587.0000;3296.0720
2588.0000;3264.4590
2589.0000;3215.4040
2590.0000;3243.4190
2591.0000;3250.7370
2592.0000;3234.0220
2593.0000;3217.0450
2594.0000;3207.4480
2595.0000;3202.7240
2596.0000;3195.4590
2597.0000;3177.4340
2598.0000;3140.6240
2599.0000;3121.0250
2600.0000;3139.4330
2601.0000;3143.5280
2602.0000;3137.5310
2603.0000;3122.8440
2604.0000;3105.9980
2605.0000;3124.3540
2606.0000;3150.8260
2607.0000;3158.0050
2608.0000;3183.7080
2609.0000;3168.4740
2610.0000;3130.8150
2611.0000;3132.2560
2612.0000;3106.8060
2613.0000;3080.8910
2614.0000;3081.3640
2615.0000;3097.6940
2616.0000;3087.3570
2617.0000;3067.8990
2618.0000;3084.2120
2619.0000;3107.0940
2620.0000;3102.5990
2621.0000;3062.8820
2622.0000;3024.6710
2623.0000;3022.4580
2624.0000;3039.9860
2625.0000;3037.5100
2626.0000;3014.6230
2627.0000;3012.7950
2628.0000;3018.3040
2629.0000;2967.4120
2630.0000;2941.8940
2631.0000;2943.7680
2632.0000;2946.4580
2633.0000;2918.4060
2634.0000;2892.0710
2635.0000;2874.4770
2636.0000;2858.7310
2637.0000;2876.5370
2638.0000;2874.5090
2639.0000;2839.5130
2640.0000;2835.4200
2641.0000;2824.0710
2642.0000;2817.2680
2643.0000;2822.7620
2644.0000;2792.4820
2645.0000;2784.3800
2646.0000;2795.8930
2647.0000;2779.0040
2648.0000;2762.2320
2649.0000;2753.7110
2650.0000;2752.1680
2651.0000;2744.0160
2652.0000;2718.8120
2653.0000;2712.0270
2654.0000;2741.7400
2655.0000;2717.0690
2656.0000;2669.1360
2657.0000;2639.2710
2658.0000;2648.3840
2659.0000;2638.4160
2660.0000;2619.9660
2661.0000;2617.8260
2662.0000;2651.6970
2663.0000;2608.0090
2664.0000;2571.2250
2665.0000;2622.0250
2666.0000;2580.7100
2667.0000;2555.3950
2668.0000;2563.0990
2669.0000;2546.3870
2670.0000;2523.7670
2671.0000;2493.1060
2672.0000;2466.6810
2673.0000;2464.0540
2674.0000;2483.5550
2675.0000;2481.9480
2676.0000;2441.3330
2677.0000;2431.1000
2678.0000;2441.5800
2679.0000;2447.7060
2680.0000;2425.0250
2681.0000;2387.2670
2682.0000;2378.2430
2683.0000;2390.9620
2684.0000;2376.5330
2685.0000;2390.2070
2686.0000;2387.2710
2687.0000;2354.1220
2688.0000;2346.0850
2689.0000;2336.7430
2690.0000;2308.3870
2691.0000;2266.5130
2692.0000;2259.9410
2693.0000;2252.3720
2694.0000;2242.5420
2695.0000;2238.9300
2696.0000;2216.3650
2697.0000;2213.0870
2698.0000;2219.7080
2699.0000;2196.8140
2700.0000;2180.6410
2701.0000;2172.8740
2702.0000;2178.6150
2703.0000;2201.6850
2704.0000;2172.0290
2705.0000;2136.5100
2706.0000;2132.2180
2707.0000;2115.2310
2708.0000;2133.7220
2709.0000;2153.6350
2710.0000;2136.9520
2711.0000;2116.3140
2712.0000;2107.7560
2713.0000;2126.5310
2714.0000;2156.6670
2715.0000;2125.9010
2716.0000;2129.1670
2717.0000;2145.9240
2718.0000;2111.8080
2719.0000;2150.8300
2720.0000;2176.8220
2721.0000;2169.3190
2722.0000;2179.6620
2723.0000;2185.7540
2724.0000;2184.6960
2725.0000;2183.5490
2726.0000;2193.1610
2727.0000;2184.7530
2728.0000;2180.3960
2729.0000;2193.5630
2730.0000;2206.3930
2731.0000;2214.9830
2732.0000;2220.4600
2733.0000;2223.1140
2734.0000;2217.8930
2735.0000;2205.6810
2736.0000;2197.7830
2737.0000;2200.7230
2738.0000;2203.8560
2739.0000;2222.8040
2740.0000;2231.8310
2741.0000;2214.1230
2742.0000;2206.3420
2743.0000;2193.9880
2744.0000;2187.3370
2745.0000;2192.1790
2746.0000;2183.1100
2747.0000;2190.9660
2748.0000;2197.3690
2749.0000;2182.3380
2750.0000;2196.1050
2751.0000;2183.4830
2752.0000;2157.6170
2753.0000;2159.0150
2754.0000;2169.0630
2755.0000;2198.1860
2756.0000;2216.2830
2757.0000;2195.0000
2758.0000;2176.5310
2759.0000;2177.9660
2760.0000;2184.5540
2761.0000;2174.0000
2762.0000;2183.4220
2763.0000;2185.7230
2764.0000;2176.5690
2765.0000;2171.0000
2766.0000;2185.3200
2767.0000;2197.4450
2768.0000;2197.6940
2769.0000;2194.3330
2770.0000;2210.7160
2771.0000;2201.9760
2772.0000;2193.1410
2773.0000;2217.7270
2774.0000;2201.1540
2775.0000;2217.0290
2776.0000;2238.1220
2777.0000;2213.6860
2778.0000;2194.9970
2779.0000;2196.5120
2780.0000;2210.3090
2781.0000;2217.0100
2782.0000;2219.9790
2783.0000;2231.2940
2784.0000;2240.0520
2785.0000;2233.5160
2786.0000;2224.1110
2787.0000;2215.4250
2788.0000;2203.5250
2789.0000;2196.9690
2790.0000;2228.2080
2791.0000;2203.3970
2792.0000;2192.6040
2793.0000;2230.4650
2794.0000;2199.3370
2795.0000;2153.9700
2796.0000;2140.1880
2797.0000;2166.4560
2798.0000;2179.9120
2799.0000;2186.4710
2800.0000;2181.8540
2801.0000;2161.4540
2802.0000;2126.3460
2803.0000;2120.7970
2804.0000;2128.6660
2805.0000;2128.6480
2806.0000;2117.9420
2807.0000;2129.4750
2808.0000;2105.6130
2809.0000;2070.7480
2810.0000;2087.4800
2811.0000;2084.6900
2812.0000;2064.0670
2813.0000;2059.9390
2814.0000;2093.9060
2815.0000;2106.8560
2816.0000;2093.4650
2817.0000;2085.0420
2818.0000;2094.3480
2819.0000;2062.7950
2820.0000;2055.3940
2821.0000;2062.1000
2822.0000;2053.7840
2823.0000;2020.6240
2824.0000;2010.8930
2825.0000;2010.2100
2826.0000;2002.3500
2827.0000;1989.3790
2828.0000;1984.2360
2829.0000;1957.5030
2830.0000;1930.1240
2831.0000;1943.2550
2832.0000;1966.3650
2833.0000;1957.6250
2834.0000;1922.9760
2835.0000;1900.3130
2836.0000;1908.0110
2837.0000;1876.7120
2838.0000;1858.7780
2839.0000;1874.7960
2840.0000;1848.8080
2841.0000;1865.7490
2842.0000;1860.3350
2843.0000;1825.2440
2844.0000;1822.2230
2845.0000;1824.3190
2846.0000;1799.2110
2847.0000;1797.6000
2848.0000;1851.0310
2849.0000;1817.5930
2850.0000;1804.3980
2851.0000;1807.3760
2852.0000;1796.5400
2853.0000;1780.8740
2854.0000;1758.4350
2855.0000;1754.0240
2856.0000;1758.8350
2857.0000;1740.4640
2858.0000;1743.9980
2859.0000;1733.2840
2860.0000;1704.3240
2861.0000;1685.2130
2862.0000;1703.7970
2863.0000;1708.7490
2864.0000;1707.2220
2865.0000;1706.2080
2866.0000;1689.6920
2867.0000;1722.5290
2868.0000;1747.2600
2869.0000;1739.1950
2870.0000;1731.0670
2871.0000;1749.0320
2872.0000;1740.0890
2873.0000;1729.9030
2874.0000;1745.5190
2875.0000;1743.2850
2876.0000;1754.6800
2877.0000;1756.2870
2878.0000;1745.3450
2879.0000;1747.1730
2880.0000;1756.5340
2881.0000;1755.6250
2882.0000;1749.4790
2883.0000;1746.4240
2884.0000;1730.4470
2885.0000;1719.9860
2886.0000;1714.2560
2887.0000;1718.5620
2888.0000;1737.4490
2889.0000;1729.7920
2890.0000;1711.6700
2891.0000;1716.4370
2892.0000;1741.5630
2893.0000;1716.5620
2894.0000;1713.1450
2895.0000;1722.2730
2896.0000;1730.8810
2897.0000;1738.4820
2898.0000;1716.4550
2899.0000;1699.3350
2900.0000;1701.9140
2901.0000;1707.0730
2902.0000;1686.7650
2903.0000;1711.3310
2904.0000;1711.3830
2905.0000;1682.0600
2906.0000;1685.4610
2907.0000;1669.3660
2908.0000;1649.7950
2909.0000;1641.3080
2910.0000;1639.4510
2911.0000;1619.5230
2912.0000;1618.1300
2913.0000;1617.3540
2914.0000;1610.6510
2915.0000;1606.3640
2916.0000;1605.4170
2917.0000;1602.9890
2918.0000;1603.0190
2919.0000;1600.8430
2920.0000;1585.7360
2921.0000;1570.9450
2922.0000;1571.1050
2923.0000;1567.3590
2924.0000;1544.5550
2925.0000;1528.9360
2926.0000;1554.6520
2927.0000;1553.7080
2928.0000;1538.6360
2929.0000;1561.4880
2930.0000;1554.5050
2931.0000;1542.8950
2932.0000;1529.8730
2933.0000;1518.7980
2934.0000;1515.3330
2935.0000;1516.7050
2936.0000;1501.4920
2937.0000;1476.5280
2938.0000;1463.5110
2939.0000;1467.6810
2940.0000;1440.0980
2941.0000;1433.0940
2942.0000;1445.9480
2943.0000;1444.6700
2944.0000;1428.0350
2945.0000;1430.9930
2946.0000;1425.5940
2947.0000;1407.1110
2948.0000;1394.7940
2949.0000;1379.0300
2950.0000;1390.0840
2951.0000;1384.9330
2952.0000;1364.6900
2953.0000;1374.2740
2954.0000;1359.6150
2955.0000;1342.8320
2956.0000;1340.4320
2957.0000;1347.5390
2958.0000;1339.2180
2959.0000;1309.8880
2960.0000;1329.4530
2961.0000;1358.1780
2962.0000;1336.5950
2963.0000;1292.6980
2964.0000;1335.6380
2965.0000;1334.1920
2966.0000;1317.8330
2967.0000;1338.7400
2968.0000;1317.1330
2969.0000;1302.0260
2970.0000;1307.3310
2971.0000;1318.8580
2972.0000;1311.2140
2973.0000;1283.3820
2974.0000;1261.9450
2975.0000;1249.0200
2976.0000;1249.7170
2977.0000;1256.6430
2978.0000;1244.8310
2979.0000;1254.4690
2980.0000;1264.4510
2981.0000;1267.6330
2982.0000;1277.1590
2983.0000;1301.2760
2984.0000;1299.4080
2985.0000;1297.9510
2986.0000;1311.6390
2987.0000;1319.5920
2988.0000;1288.2750
2989.0000;1289.2210
2990.0000;1297.9390
2991.0000;1307.2810
2992.0000;1305.2840
2993.0000;1252.9660
2994.0000;1241.1160
2995.0000;1250.0350
2996.0000;1269.2800
2997.0000;1276.7870
2998.0000;1233.5360
2999.0000;1237.2200
3000.0000;1234.5010
3001.0000;1227.5570
3002.0000;1231.5110
3003.0000;1221.9560
3004.0000;1220.3310
3005.0000;1213.0160
3006.0000;1213.5550
3007.0000;1221.0610
3008.0000;1206.3330
3009.0000;1182.2090
3010.0000;1181.5330
3011.0000;1186.2670
3012.0000;1180.0830
3013.0000;1177.8730
3014.0000;1184.6190
3015.0000;1160.0060
3016.0000;1148.2120
3017.0000;1153.2370
3018.0000;1134.6300
3019.0000;1127.6020
3020.0000;1135.7220
3021.0000;1154.1970
3022.0000;1143.5010
3023.0000;1107.8190
3024.0000;1142.2980
3025.0000;1139.1070
3026.0000;1114.9260
3027.0000;1096.0180
3028.0000;1086.1560
3029.0000;1066.4890
3030.0000;1065.7750
3031.0000;1030.9630
3032.0000;1025.1230
3033.0000;1060.3680
3034.0000;1053.0990
3035.0000;1046.5730
3036.0000;1030.6730
3037.0000;1016.4580
3038.0000;1019.3040
3039.0000;1031.3000
3040.0000;1011.5060
3041.0000;997.3145
3042.0000;1000.9720
3043.0000;1000.2110
3044.0000;971.3735
3045.0000;935.6667
3046.0000;948.8828
3047.0000;950.9312
3048.0000;934.5656
3049.0000;927.7532
3050.0000;939.6924
3051.0000;919.5827
3052.0000;928.3946
3053.0000;923.5330
3054.0000;906.5575
3055.0000;900.9933
3056.0000;889.8393
3057.0000;871.3210
3058.0000;859.8751
3059.0000;865.0327
3060.0000;874.4228
3061.0000;866.4244
3062.0000;846.6581
3063.0000;850.3768
3064.0000;855.1518
3065.0000;834.7289
3066.0000;800.9259
3067.0000;797.3652
3068.0000;812.0413
3069.0000;813.0870
3070.0000;807.5967
3071.0000;794.5978
3072.0000;771.7717
3073.0000;779.4037
3074.0000;776.2963
3075.0000;769.1038
3076.0000;762.4291
3077.0000;761.9613
3078.0000;764.1212
3079.0000;728.4457
3080.0000;739.9449
3081.0000;726.2218
3082.0000;702.9949
3083.0000;717.8812
3084.0000;708.0000
3085.0000;704.4333
3086.0000;706.6012
3087.0000;718.1815
3088.0000;709.7609
3089.0000;667.8692
3090.0000;663.1320
3091.0000;679.6215
3092.0000;685.1832
3093.0000;680.4544
3094.0000;670.9317
3095.0000;655.1874
3096.0000;660.0540
3097.0000;675.7474
3098.0000;679.4429
3099.0000;662.3192
3100.0000;655.3248
3101.0000;681.8846
3102.0000;661.3740
3103.0000;647.7865
3104.0000;644.8497
3105.0000;650.5389
3106.0000;653.4219
3107.0000;644.8094
3108.0000;663.5035
3109.0000;635.8458
3110.0000;626.9959
3111.0000;642.5465
3112.0000;654.8816
3113.0000;677.1393
3114.0000;655.0921
3115.0000;670.9012
3116.0000;672.1555
3117.0000;668.9952
3118.0000;683.0077
3119.0000;667.8829
3120.0000;670.5989
3121.0000;685.5490
3122.0000;705.9089
3123.0000;710.0653
3124.0000;701.5361
3125.0000;712.3889
3126.0000;715.2474
3127.0000;735.6174
3128.0000;740.8161
3129.0000;734.1821
3130.0000;735.8351
3131.0000;738.9561
3132.0000;736.1901
3133.0000;745.2161
3134.0000;749.8163
3135.0000;764.1070
3136.0000;760.3929
3137.0000;714.1960
3138.0000;759.0895
3139.0000;749.3009
3140.0000;763.3288
3141.0000;758.0629
3142.0000;742.1609
3143.0000;785.5585
3144.0000;804.6382
3145.0000;792.3172
3146.0000;789.6254
3147.0000;789.3578
3148.0000;779.7565
3149.0000;774.1414
3150.0000;784.3561
3151.0000;761.4191
3152.0000;759.7880
3153.0000;755.2455
3154.0000;744.4028
3155.0000;742.6487
3156.0000;745.8257
3157.0000;743.1457
3158.0000;731.4355
3159.0000;743.2289
3160.0000;743.7443
3161.0000;739.5815
3162.0000;761.9622
3163.0000;754.5925
3164.0000;751.2156
3165.0000;760.5735
3166.0000;763.5038
3167.0000;750.3328
3168.0000;742.9443
3169.0000;758.0977
3170.0000;748.3879
3171.0000;745.4504
3172.0000;757.1315
3173.0000;746.5692
3174.0000;726.6069
3175.0000;730.5571
3176.0000;723.5151
3177.0000;747.9286
3178.0000;728.0343
3179.0000;732.0383
3180.0000;742.5762
3181.0000;730.8820
3182.0000;728.4086
3183.0000;724.9841
3184.0000;731.8796
3185.0000;736.8842
3186.0000;729.3798
3187.0000;723.8428
3188.0000;728.7987
3189.0000;728.7111
3190.0000;737.2021
3191.0000;729.0945
3192.0000;745.9441
3193.0000;743.1122
3194.0000;734.6105
3195.0000;756.1765
3196.0000;755.2006
3197.0000;739.8591
3198.0000;748.3568
3199.0000;744.1382
3200.0000;735.1010
3201.0000;748.1031
3202.0000;761.6863
3203.0000;731.6291
3204.0000;738.9444
3205.0000;753.1095
3206.0000;760.4315
3207.0000;773.4183
3208.0000;782.5120
3209.0000;781.1652
3210.0000;796.1321
3211.0000;774.0402
3212.0000;768.9404
3213.0000;787.8056
3214.0000;806.1830
3215.0000;806.6487
3216.0000;798.8498
3217.0000;800.1742
3218.0000;811.5536
3219.0000;833.4247
3220.0000;829.1898
3221.0000;820.1112
3222.0000;831.3074
3223.0000;851.1606
3224.0000;857.2545
3225.0000;858.3132
3226.0000;865.0692
3227.0000;853.0421
3228.0000;858.0015
3229.0000;860.3963
3230.0000;846.5748
3231.0000;850.9611
3232.0000;863.7208
3233.0000;872.5352
3234.0000;857.8171
3235.0000;886.7097
3236.0000;885.7836
3237.0000;860.1268
3238.0000;871.9896
3239.0000;860.6378
3240.0000;872.0148
3241.0000;871.1270
3242.0000;870.6450
3243.0000;865.9742
3244.0000;850.0407
3245.0000;841.5491
3246.0000;853.9307
3247.0000;847.6901
3248.0000;837.2990
3249.0000;854.7822
3250.0000;833.6102
3251.0000;822.0718
3252.0000;824.2003
3253.0000;806.5541
3254.0000;800.2134
3255.0000;793.9160
3256.0000;789.0231
3257.0000;781.7081
3258.0000;774.5665
3259.0000;767.2949
3260.0000;747.7987
3261.0000;724.0868
3262.0000;720.6735
3263.0000;690.5962
3264.0000;681.1805
3265.0000;693.7658
3266.0000;664.5939
3267.0000;637.0668
3268.0000;646.3471
3269.0000;635.9324
3270.0000;589.9331
3271.0000;604.5760
3272.0000;583.0616
3273.0000;549.9974
3274.0000;559.1094
3275.0000;549.0449
3276.0000;516.7058
3277.0000;515.4022
3278.0000;504.0761
3279.0000;499.1357
3280.0000;478.1371
3281.0000;491.1023
3282.0000;463.2361
3283.0000;447.4944
3284.0000;451.5689
3285.0000;441.3133
3286.0000;448.7409
3287.0000;436.2651
3288.0000;409.6756
3289.0000;418.1346
3290.0000;410.4100
3291.0000;405.7563
3292.0000;405.0243
3293.0000;389.6667
3294.0000;378.8094
3295.0000;385.6898
3296.0000;355.5267
3297.0000;364.6293
3298.0000;378.4380
3299.0000;385.2700
3300.0000;379.9624
3301.0000;365.2692
3302.0000;357.3949
3303.0000;354.2701
3304.0000;327.6896
3305.0000;350.7636
3306.0000;337.6335
3307.0000;337.5969
3308.0000;347.0383
3309.0000;335.0753
3310.0000;322.4112
3311.0000;333.3341
3312.0000;336.4388
3313.0000;346.1474
3314.0000;339.0101
3315.0000;343.7088
3316.0000;345.6762
3317.0000;348.6407
3318.0000;347.6682
3319.0000;351.9571
3320.0000;363.2429
3321.0000;352.2431
3322.0000;345.6562
3323.0000;351.7098
3324.0000;336.1435
3325.0000;339.3712
3326.0000;344.5277
3327.0000;342.2953
3328.0000;345.7693
3329.0000;339.9152
3330.0000;314.9343
3331.0000;335.5175
3332.0000;350.5596
3333.0000;346.3916
3334.0000;320.8728
3335.0000;326.7838
3336.0000;337.4637
3337.0000;333.2696
3338.0000;337.1834
3339.0000;350.8494
3340.0000;350.9927
3341.0000;334.6233
3342.0000;350.1802
3343.0000;333.4199
3344.0000;338.4625
3345.0000;323.0002
3346.0000;326.2032
3347.0000;330.9516
3348.0000;299.9599
3349.0000;298.5766
3350.0000;313.4788
3351.0000;309.0012
3352.0000;314.3747
3353.0000;319.9133
3354.0000;324.3172
3355.0000;315.1833
3356.0000;311.9720
3357.0000;314.8958
3358.0000;307.3441
3359.0000;301.2607
3360.0000;294.9797
3361.0000;281.8515
3362.0000;290.3076
3363.0000;281.4251
3364.0000;289.3633
3365.0000;292.2093
3366.0000;274.2663
3367.0000;255.4826
3368.0000;259.0417
3369.0000;261.4023
3370.0000;233.5667
3371.0000;240.8115
3372.0000;239.0222
3373.0000;241.9374
3374.0000;231.1838
3375.0000;222.8901
3376.0000;239.2296
3377.0000;241.0896
3378.0000;233.2449
3379.0000;242.8451
3380.0000;241.9207
3381.0000;245.0743
3382.0000;238.6357
3383.0000;187.5966
3384.0000;200.4242
3385.0000;208.1238
3386.0000;211.0174
