Raman Shift ; Dark Subtracted #1
-2.0000;3062.4740
-1.0000;2874.9420
0.0000;2605.0070
1.0000;2248.9020
2.0000;1814.3290
3.0000;1347.2860
4.0000;934.7748
5.0000;583.0579
6.0000;338.8473
7.0000;239.3602
8.0000;170.7814
9.0000;137.8626
10.0000;162.5771
11.0000;162.0588
12.0000;104.9900
13.0000;46.5121
14.0000;5.1720
15.0000;-5.4361
16.0000;5.9830
17.0000;15.8630
18.0000;13.4713
19.0000;9.6820
20.0000;4.3285
21.0000;-3.7465
22.0000;-10.4292
23.0000;-12.3887
24.0000;-6.6040
25.0000;3.2355
26.0000;11.8339
27.0000;14.6148
28.0000;13.3441
29.0000;10.6839
30.0000;8.8261
31.0000;6.5119
32.0000;4.5816
33.0000;3.3074
34.0000;3.1882
35.0000;4.0229
36.0000;5.4133
37.0000;7.5827
38.0000;10.1240
39.0000;13.2762
40.0000;15.8450
41.0000;16.9940
42.0000;15.6323
43.0000;12.4936
44.0000;10.1792
45.0000;11.7925
46.0000;15.6563
47.0000;18.9675
48.0000;18.8965
49.0000;16.3796
50.0000;13.6080
51.0000;13.0692
52.0000;13.8422
53.0000;14.4237
54.0000;13.1579
55.0000;10.7529
56.0000;8.3228
57.0000;6.1335
58.0000;4.9762
59.0000;5.4757
60.0000;6.5964
61.0000;9.7155
62.0000;16.3411
63.0000;28.8176
64.0000;44.6978
65.0000;60.4806
66.0000;72.9086
67.0000;80.2534
68.0000;87.6636
69.0000;103.1853
70.0000;122.9143
71.0000;142.6001
72.0000;160.9670
73.0000;174.4981
74.0000;186.6455
75.0000;205.2041
76.0000;225.1701
77.0000;245.5328
78.0000;269.1564
79.0000;291.7049
80.0000;313.5727
81.0000;339.8415
82.0000;365.7432
83.0000;392.3499
84.0000;425.2563
85.0000;459.3125
86.0000;491.6865
87.0000;526.8317
88.0000;558.1722
89.0000;588.2175
90.0000;626.5920
91.0000;667.5204
92.0000;706.5715
93.0000;749.5956
94.0000;789.0405
95.0000;825.3987
96.0000;868.4086
97.0000;911.7831
98.0000;951.0377
99.0000;995.2977
100.0000;1038.3460
101.0000;1073.0880
102.0000;1110.0650
103.0000;1142.3020
104.0000;1169.8110
105.0000;1203.6010
106.0000;1239.4330
107.0000;1273.0580
108.0000;1313.8100
109.0000;1353.6330
110.0000;1387.9820
111.0000;1423.5190
112.0000;1454.9220
113.0000;1477.3220
114.0000;1501.6010
115.0000;1523.5740
116.0000;1540.9700
117.0000;1561.1530
118.0000;1581.8150
119.0000;1600.2390
120.0000;1620.8340
121.0000;1641.2340
122.0000;1658.2760
123.0000;1674.2530
124.0000;1686.5950
125.0000;1696.3790
126.0000;1710.4990
127.0000;1727.9350
128.0000;1745.1750
129.0000;1763.3510
130.0000;1780.2540
131.0000;1792.7090
132.0000;1801.2840
133.0000;1803.6690
134.0000;1803.8570
135.0000;1811.3960
136.0000;1826.8640
137.0000;1843.4800
138.0000;1856.0730
139.0000;1862.1990
140.0000;1864.3400
141.0000;1869.2460
142.0000;1876.7640
143.0000;1882.3820
144.0000;1884.9260
145.0000;1882.9220
146.0000;1880.6810
147.0000;1884.2980
148.0000;1894.3610
149.0000;1906.4990
150.0000;1916.8170
151.0000;1923.8090
152.0000;1926.9770
153.0000;1928.1930
154.0000;1926.2470
155.0000;1923.1110
156.0000;1923.0080
157.0000;1926.3470
158.0000;1930.1130
159.0000;1931.2280
160.0000;1929.1960
161.0000;1926.8670
162.0000;1926.6690
163.0000;1929.0300
164.0000;1933.5460
165.0000;1939.9800
166.0000;1948.0900
167.0000;1955.2510
168.0000;1960.3080
169.0000;1961.6080
170.0000;1961.4840
171.0000;1963.9810
172.0000;1968.4000
173.0000;1972.0530
174.0000;1973.8880
175.0000;1973.0730
176.0000;1971.2540
177.0000;1970.0860
178.0000;1969.7110
179.0000;1970.6130
180.0000;1973.7480
181.0000;1978.9510
182.0000;1983.7900
183.0000;1986.1060
184.0000;1985.5230
185.0000;1985.1940
186.0000;1989.4960
187.0000;1996.6640
188.0000;2003.1020
189.0000;2006.0000
190.0000;2004.4000
191.0000;1999.9350
192.0000;1993.5270
193.0000;1986.5480
194.0000;1982.5520
195.0000;1985.1390
196.0000;1994.4620
197.0000;2005.7780
198.0000;2014.9250
199.0000;2021.4760
200.0000;2025.2620
201.0000;2027.6530
202.0000;2026.7800
203.0000;2024.7820
204.0000;2024.3440
205.0000;2024.5490
206.0000;2025.7330
207.0000;2028.4100
208.0000;2032.1380
209.0000;2035.7180
210.0000;2039.0470
211.0000;2040.8400
212.0000;2041.0220
213.0000;2039.7920
214.0000;2036.8480
215.0000;2033.5000
216.0000;2029.4170
217.0000;2027.0030
218.0000;2028.3160
219.0000;2035.8760
220.0000;2047.0540
221.0000;2056.7890
222.0000;2060.9270
223.0000;2061.3220
224.0000;2062.0140
225.0000;2066.0610
226.0000;2070.9790
227.0000;2077.3290
228.0000;2085.1340
229.0000;2093.0770
230.0000;2101.5210
231.0000;2110.4880
232.0000;2117.9660
233.0000;2124.3200
234.0000;2129.5970
235.0000;2132.0750
236.0000;2133.6050
237.0000;2134.4340
238.0000;2134.8280
239.0000;2137.8090
240.0000;2144.7980
241.0000;2152.1040
242.0000;2157.0920
243.0000;2158.4410
244.0000;2156.8760
245.0000;2154.9720
246.0000;2153.1350
247.0000;2151.3150
248.0000;2150.3800
249.0000;2150.7580
250.0000;2152.0080
251.0000;2153.4120
252.0000;2154.8160
253.0000;2156.5750
254.0000;2158.8190
255.0000;2161.3180
256.0000;2164.2780
257.0000;2169.0420
258.0000;2174.6080
259.0000;2178.3930
260.0000;2178.1780
261.0000;2173.8560
262.0000;2169.3040
263.0000;2168.2660
264.0000;2171.3330
265.0000;2178.2490
266.0000;2191.0690
267.0000;2206.6090
268.0000;2217.4910
269.0000;2217.3290
270.0000;2206.4710
271.0000;2194.1910
272.0000;2189.4520
273.0000;2190.3390
274.0000;2194.0500
275.0000;2196.7340
276.0000;2200.9750
277.0000;2207.0000
278.0000;2216.0120
279.0000;2225.3890
280.0000;2233.2600
281.0000;2238.1380
282.0000;2240.0220
283.0000;2243.0250
284.0000;2251.0950
285.0000;2259.4960
286.0000;2266.1820
287.0000;2269.2810
288.0000;2269.8120
289.0000;2272.0280
290.0000;2279.0280
291.0000;2285.4180
292.0000;2288.6210
293.0000;2286.7220
294.0000;2281.8760
295.0000;2277.9530
296.0000;2276.3430
297.0000;2275.8410
298.0000;2275.1780
299.0000;2274.3070
300.0000;2274.8910
301.0000;2277.7240
302.0000;2282.8510
303.0000;2289.4880
304.0000;2297.2000
305.0000;2304.8440
306.0000;2311.2570
307.0000;2317.1100
308.0000;2320.5400
309.0000;2321.2980
310.0000;2320.6370
311.0000;2317.9890
312.0000;2315.9610
313.0000;2317.9900
314.0000;2323.1470
315.0000;2328.2250
316.0000;2331.1670
317.0000;2331.8840
318.0000;2331.5290
319.0000;2331.4240
320.0000;2330.8450
321.0000;2330.5930
322.0000;2330.6490
323.0000;2331.8100
324.0000;2334.9920
325.0000;2340.4800
326.0000;2347.5770
327.0000;2355.4440
328.0000;2363.7030
329.0000;2370.8100
330.0000;2378.2670
331.0000;2386.6720
332.0000;2392.5450
333.0000;2394.5340
334.0000;2390.8540
335.0000;2386.9830
336.0000;2392.5480
337.0000;2410.1230
338.0000;2427.5670
339.0000;2433.6400
340.0000;2423.9380
341.0000;2409.4460
342.0000;2401.3280
343.0000;2401.1800
344.0000;2406.1630
345.0000;2413.3320
346.0000;2423.5370
347.0000;2434.7270
348.0000;2446.7720
349.0000;2457.1530
350.0000;2464.0020
351.0000;2468.7980
352.0000;2468.6900
353.0000;2466.5190
354.0000;2466.9210
355.0000;2466.6370
356.0000;2464.7680
357.0000;2458.3910
358.0000;2452.1870
359.0000;2450.8900
360.0000;2460.1420
361.0000;2473.0170
362.0000;2480.9250
363.0000;2476.9100
364.0000;2468.1770
365.0000;2463.5010
366.0000;2467.6070
367.0000;2474.9440
368.0000;2480.3840
369.0000;2482.4560
370.0000;2481.7230
371.0000;2478.1990
372.0000;2471.4960
373.0000;2466.7040
374.0000;2469.5650
375.0000;2480.2900
376.0000;2492.0010
377.0000;2496.7080
378.0000;2494.3860
379.0000;2490.3720
380.0000;2489.9470
381.0000;2491.8380
382.0000;2495.2230
383.0000;2499.6490
384.0000;2504.8260
385.0000;2510.8000
386.0000;2519.1990
387.0000;2526.0330
388.0000;2529.6850
389.0000;2527.1710
390.0000;2521.9030
391.0000;2521.2430
392.0000;2529.8230
393.0000;2542.5200
394.0000;2555.8470
395.0000;2566.8400
396.0000;2574.5140
397.0000;2579.4250
398.0000;2580.5550
399.0000;2577.2360
400.0000;2572.4040
401.0000;2565.9390
402.0000;2560.6130
403.0000;2558.7290
404.0000;2561.6620
405.0000;2567.4560
406.0000;2574.0670
407.0000;2581.0460
408.0000;2588.2220
409.0000;2594.3080
410.0000;2598.9780
411.0000;2605.7440
412.0000;2620.9740
413.0000;2637.2080
414.0000;2647.3340
415.0000;2645.3420
416.0000;2635.6180
417.0000;2630.1430
418.0000;2636.7250
419.0000;2648.2370
420.0000;2658.3570
421.0000;2663.8720
422.0000;2665.6820
423.0000;2665.5220
424.0000;2663.1270
425.0000;2658.5750
426.0000;2653.6090
427.0000;2649.0010
428.0000;2646.5740
429.0000;2647.6360
430.0000;2652.7990
431.0000;2658.8030
432.0000;2661.9050
433.0000;2662.7790
434.0000;2664.7750
435.0000;2672.3300
436.0000;2681.8830
437.0000;2689.0630
438.0000;2690.8320
439.0000;2688.0950
440.0000;2685.3790
441.0000;2686.2200
442.0000;2688.0860
443.0000;2689.9030
444.0000;2691.1540
445.0000;2692.2030
446.0000;2693.8220
447.0000;2696.1190
448.0000;2697.5640
449.0000;2697.0350
450.0000;2694.0720
451.0000;2691.1840
452.0000;2690.7390
453.0000;2693.1560
454.0000;2697.3530
455.0000;2702.8420
456.0000;2708.9340
457.0000;2714.4860
458.0000;2718.8410
459.0000;2721.2780
460.0000;2723.7400
461.0000;2728.7980
462.0000;2733.9360
463.0000;2739.0560
464.0000;2744.2640
465.0000;2748.0250
466.0000;2750.7900
467.0000;2751.9740
468.0000;2752.7220
469.0000;2756.4210
470.0000;2763.8360
471.0000;2770.7250
472.0000;2773.6550
473.0000;2771.5090
474.0000;2768.8460
475.0000;2771.2750
476.0000;2777.6960
477.0000;2784.8750
478.0000;2790.1680
479.0000;2793.6110
480.0000;2797.2000
481.0000;2804.4200
482.0000;2811.2340
483.0000;2816.1570
484.0000;2817.9090
485.0000;2817.0260
486.0000;2817.1260
487.0000;2819.7430
488.0000;2823.1740
489.0000;2827.5800
490.0000;2832.6490
491.0000;2835.7590
492.0000;2834.5870
493.0000;2828.5720
494.0000;2822.6950
495.0000;2821.6580
496.0000;2825.9650
497.0000;2833.6480
498.0000;2843.7410
499.0000;2854.5420
500.0000;2862.9000
501.0000;2867.4060
502.0000;2866.8300
503.0000;2865.3460
504.0000;2866.1870
505.0000;2866.5850
506.0000;2866.1920
507.0000;2864.4410
508.0000;2863.1480
509.0000;2864.1880
510.0000;2868.0820
511.0000;2874.1670
512.0000;2882.6170
513.0000;2892.0910
514.0000;2899.0760
515.0000;2901.1520
516.0000;2897.3860
517.0000;2892.3900
518.0000;2890.7220
519.0000;2891.8450
520.0000;2896.2540
521.0000;2904.7990
522.0000;2915.5060
523.0000;2925.3330
524.0000;2932.2750
525.0000;2936.0030
526.0000;2939.7920
527.0000;2943.6720
528.0000;2947.2330
529.0000;2953.0890
530.0000;2960.3180
531.0000;2967.8310
532.0000;2975.5790
533.0000;2982.3280
534.0000;2990.0320
535.0000;3001.4500
536.0000;3013.7640
537.0000;3026.4000
538.0000;3042.4530
539.0000;3055.1730
540.0000;3065.0110
541.0000;3071.4930
542.0000;3073.6140
543.0000;3077.2900
544.0000;3084.1500
545.0000;3090.9550
546.0000;3097.6480
547.0000;3102.6830
548.0000;3108.1310
549.0000;3119.1400
550.0000;3132.3940
551.0000;3143.1770
552.0000;3149.4510
553.0000;3149.0230
554.0000;3146.0000
555.0000;3144.0220
556.0000;3142.3580
557.0000;3144.1740
558.0000;3151.2530
559.0000;3162.1000
560.0000;3174.0190
561.0000;3185.8840
562.0000;3195.5640
563.0000;3202.0270
564.0000;3203.5530
565.0000;3203.8410
566.0000;3211.6800
567.0000;3223.8640
568.0000;3230.9830
569.0000;3224.3830
570.0000;3208.3390
571.0000;3197.9620
572.0000;3206.2860
573.0000;3224.2460
574.0000;3240.0030
575.0000;3246.5440
576.0000;3246.0960
577.0000;3243.2680
578.0000;3238.8380
579.0000;3231.9190
580.0000;3224.5940
581.0000;3217.8100
582.0000;3212.6740
583.0000;3210.0130
584.0000;3210.6060
585.0000;3211.2580
586.0000;3206.5610
587.0000;3200.9610
588.0000;3198.4580
589.0000;3202.9240
590.0000;3210.8110
591.0000;3216.0070
592.0000;3215.7200
593.0000;3212.0310
594.0000;3207.4510
595.0000;3202.8050
596.0000;3198.5000
597.0000;3195.4340
598.0000;3194.4410
599.0000;3194.8730
600.0000;3195.4760
601.0000;3196.6070
602.0000;3197.1700
603.0000;3194.9360
604.0000;3192.5090
605.0000;3192.7840
606.0000;3198.0350
607.0000;3204.9420
608.0000;3208.9150
609.0000;3208.0760
610.0000;3205.9660
611.0000;3207.2920
612.0000;3211.9180
613.0000;3216.7050
614.0000;3219.7090
615.0000;3220.6150
616.0000;3221.1720
617.0000;3222.1710
618.0000;3224.1820
619.0000;3229.3900
620.0000;3240.1930
621.0000;3251.9780
622.0000;3262.2480
623.0000;3268.2340
624.0000;3270.0150
625.0000;3270.9770
626.0000;3270.0770
627.0000;3268.1060
628.0000;3266.7610
629.0000;3266.4310
630.0000;3268.3020
631.0000;3275.8690
632.0000;3284.6390
633.0000;3288.0350
634.0000;3280.9100
635.0000;3268.8580
636.0000;3261.1840
637.0000;3262.1560
638.0000;3266.3790
639.0000;3267.0730
640.0000;3264.0220
641.0000;3261.3170
642.0000;3262.1090
643.0000;3265.7220
644.0000;3268.8510
645.0000;3267.6470
646.0000;3264.8100
647.0000;3264.4100
648.0000;3269.6740
649.0000;3276.8660
650.0000;3282.3090
651.0000;3284.5930
652.0000;3283.5310
653.0000;3280.1560
654.0000;3274.2890
655.0000;3268.3170
656.0000;3265.1860
657.0000;3264.5430
658.0000;3262.5000
659.0000;3254.4170
660.0000;3244.5290
661.0000;3235.8480
662.0000;3229.1180
663.0000;3226.7470
664.0000;3228.3140
665.0000;3234.7350
666.0000;3240.9360
667.0000;3238.5370
668.0000;3228.5850
669.0000;3220.1690
670.0000;3223.8310
671.0000;3235.8700
672.0000;3246.0740
673.0000;3245.6370
674.0000;3239.7450
675.0000;3235.7800
676.0000;3237.5580
677.0000;3241.2730
678.0000;3245.5160
679.0000;3249.3800
680.0000;3247.9780
681.0000;3234.2070
682.0000;3211.1540
683.0000;3193.0500
684.0000;3191.4590
685.0000;3204.2710
686.0000;3218.9410
687.0000;3226.9960
688.0000;3231.3350
689.0000;3233.2420
690.0000;3232.2240
691.0000;3228.5900
692.0000;3224.7040
693.0000;3221.2620
694.0000;3220.5950
695.0000;3226.1020
696.0000;3235.8100
697.0000;3243.1930
698.0000;3241.6820
699.0000;3235.8150
700.0000;3233.7760
701.0000;3240.7270
702.0000;3249.7040
703.0000;3253.5100
704.0000;3249.8460
705.0000;3246.3490
706.0000;3251.9190
707.0000;3264.0430
708.0000;3274.6090
709.0000;3277.3680
710.0000;3273.6430
711.0000;3269.3520
712.0000;3268.6520
713.0000;3268.5390
714.0000;3267.0790
715.0000;3263.7830
716.0000;3262.6960
717.0000;3266.8380
718.0000;3276.5070
719.0000;3288.6950
720.0000;3302.6780
721.0000;3314.6250
722.0000;3321.7810
723.0000;3321.7830
724.0000;3315.7900
725.0000;3312.1580
726.0000;3314.8360
727.0000;3316.4970
728.0000;3309.0110
729.0000;3293.3890
730.0000;3281.8190
731.0000;3286.3300
732.0000;3303.6430
733.0000;3319.4350
734.0000;3319.8150
735.0000;3312.4270
736.0000;3307.3080
737.0000;3309.7720
738.0000;3314.0810
739.0000;3316.1370
740.0000;3315.2400
741.0000;3314.0480
742.0000;3314.1670
743.0000;3316.0910
744.0000;3321.0000
745.0000;3332.9690
746.0000;3345.1610
747.0000;3350.9930
748.0000;3345.0310
749.0000;3334.4530
750.0000;3329.5920
751.0000;3332.7780
752.0000;3338.9920
753.0000;3342.8530
754.0000;3345.1670
755.0000;3347.5000
756.0000;3351.6340
757.0000;3355.4260
758.0000;3358.5820
759.0000;3360.7100
760.0000;3360.8770
761.0000;3359.5860
762.0000;3356.7200
763.0000;3353.3790
764.0000;3350.9850
765.0000;3350.0470
766.0000;3349.9000
767.0000;3350.0430
768.0000;3350.4970
769.0000;3349.9110
770.0000;3347.4280
771.0000;3344.4510
772.0000;3341.5190
773.0000;3339.2920
774.0000;3341.0500
775.0000;3349.4700
776.0000;3363.8500
777.0000;3377.9000
778.0000;3388.4330
779.0000;3394.2370
780.0000;3400.1670
781.0000;3408.6400
782.0000;3414.3830
783.0000;3418.1140
784.0000;3418.1550
785.0000;3414.9860
786.0000;3410.0830
787.0000;3404.2410
788.0000;3401.9190
789.0000;3407.0640
790.0000;3416.3540
791.0000;3424.3000
792.0000;3427.4040
793.0000;3427.1180
794.0000;3425.2030
795.0000;3421.5130
796.0000;3419.5520
797.0000;3423.7490
798.0000;3432.4850
799.0000;3440.4100
800.0000;3443.8040
801.0000;3444.5310
802.0000;3447.4400
803.0000;3453.9870
804.0000;3459.4630
805.0000;3460.1660
806.0000;3455.6380
807.0000;3450.7960
808.0000;3451.0240
809.0000;3454.8530
810.0000;3459.6220
811.0000;3463.6820
812.0000;3466.9990
813.0000;3469.1270
814.0000;3469.4780
815.0000;3469.1260
816.0000;3470.6690
817.0000;3473.4020
818.0000;3475.5630
819.0000;3475.9360
820.0000;3474.9820
821.0000;3474.4290
822.0000;3475.0930
823.0000;3476.6000
824.0000;3479.6690
825.0000;3483.7930
826.0000;3485.4990
827.0000;3477.6950
828.0000;3466.0140
829.0000;3463.7480
830.0000;3486.4150
831.0000;3517.8500
832.0000;3535.4700
833.0000;3528.0480
834.0000;3511.9300
835.0000;3510.0480
836.0000;3521.4410
837.0000;3533.7020
838.0000;3536.5870
839.0000;3532.2270
840.0000;3526.3260
841.0000;3521.5280
842.0000;3517.9750
843.0000;3517.3220
844.0000;3520.4730
845.0000;3524.8140
846.0000;3526.9310
847.0000;3526.5730
848.0000;3524.5340
849.0000;3521.2020
850.0000;3517.2220
851.0000;3514.5730
852.0000;3514.4140
853.0000;3516.1180
854.0000;3518.2560
855.0000;3520.5600
856.0000;3522.2020
857.0000;3520.3460
858.0000;3517.6490
859.0000;3519.7140
860.0000;3530.7130
861.0000;3545.3660
862.0000;3558.7750
863.0000;3567.6700
864.0000;3570.8100
865.0000;3567.3510
866.0000;3557.5410
867.0000;3551.1220
868.0000;3558.6700
869.0000;3572.2080
870.0000;3580.9360
871.0000;3579.3040
872.0000;3573.1500
873.0000;3569.7010
874.0000;3568.9540
875.0000;3568.6480
876.0000;3566.1640
877.0000;3564.0300
878.0000;3564.8800
879.0000;3570.8870
880.0000;3578.3960
881.0000;3582.9820
882.0000;3582.8520
883.0000;3580.1550
884.0000;3576.6630
885.0000;3573.2940
886.0000;3573.4420
887.0000;3578.7050
888.0000;3589.1450
889.0000;3603.8320
890.0000;3621.7430
891.0000;3637.2430
892.0000;3645.7960
893.0000;3645.1720
894.0000;3642.3000
895.0000;3645.4210
896.0000;3649.9660
897.0000;3655.5830
898.0000;3661.5630
899.0000;3668.1580
900.0000;3677.6340
901.0000;3688.1350
902.0000;3696.1780
903.0000;3700.8470
904.0000;3700.4410
905.0000;3699.2960
906.0000;3699.5260
907.0000;3700.6380
908.0000;3704.8710
909.0000;3712.1500
910.0000;3718.8660
911.0000;3721.2010
912.0000;3720.1220
913.0000;3721.7920
914.0000;3730.7280
915.0000;3742.3950
916.0000;3754.6620
917.0000;3765.4520
918.0000;3769.9590
919.0000;3763.4790
920.0000;3748.3650
921.0000;3739.0020
922.0000;3749.0610
923.0000;3768.7290
924.0000;3781.8470
925.0000;3782.3000
926.0000;3777.6670
927.0000;3776.2830
928.0000;3777.5560
929.0000;3781.2000
930.0000;3787.5840
931.0000;3796.0970
932.0000;3806.8370
933.0000;3818.9520
934.0000;3827.2310
935.0000;3827.6270
936.0000;3819.3190
937.0000;3812.4190
938.0000;3816.9270
939.0000;3829.1010
940.0000;3842.6630
941.0000;3855.5390
942.0000;3863.7010
943.0000;3863.8670
944.0000;3854.5480
945.0000;3843.1790
946.0000;3838.9300
947.0000;3839.6950
948.0000;3842.1090
949.0000;3844.7030
950.0000;3846.9040
951.0000;3846.3290
952.0000;3842.4230
953.0000;3836.9520
954.0000;3829.3450
955.0000;3823.4800
956.0000;3823.9240
957.0000;3834.9920
958.0000;3848.4910
959.0000;3852.8230
960.0000;3845.0590
961.0000;3835.8080
962.0000;3836.5800
963.0000;3843.6250
964.0000;3850.6260
965.0000;3852.2660
966.0000;3853.4590
967.0000;3859.8900
968.0000;3871.8250
969.0000;3882.1210
970.0000;3887.1610
971.0000;3885.7290
972.0000;3882.4850
973.0000;3879.7080
974.0000;3878.4880
975.0000;3882.9310
976.0000;3893.4820
977.0000;3904.9330
978.0000;3912.3560
979.0000;3914.8490
980.0000;3915.0230
981.0000;3914.3430
982.0000;3912.7840
983.0000;3913.8800
984.0000;3918.1650
985.0000;3923.0740
986.0000;3926.0330
987.0000;3928.0630
988.0000;3933.1860
989.0000;3943.7770
990.0000;3955.8850
991.0000;3967.0270
992.0000;3974.3500
993.0000;3977.3940
994.0000;3976.3550
995.0000;3971.7440
996.0000;3972.0170
997.0000;3983.2540
998.0000;3996.7320
999.0000;4002.6150
1000.0000;3998.5970
1001.0000;3992.5010
1002.0000;3994.3470
1003.0000;3999.1160
1004.0000;4000.5090
1005.0000;3995.1170
1006.0000;3986.5940
1007.0000;3978.9780
1008.0000;3974.0390
1009.0000;3971.6740
1010.0000;3969.4760
1011.0000;3971.1600
1012.0000;3977.2350
1013.0000;3987.4740
1014.0000;4001.0680
1015.0000;4020.2040
1016.0000;4040.2080
1017.0000;4051.4930
1018.0000;4046.6020
1019.0000;4030.5230
1020.0000;4023.3650
1021.0000;4035.1850
1022.0000;4051.4300
1023.0000;4058.6930
1024.0000;4056.4550
1025.0000;4055.3950
1026.0000;4066.7170
1027.0000;4080.5980
1028.0000;4087.1330
1029.0000;4081.0360
1030.0000;4073.0430
1031.0000;4078.4320
1032.0000;4092.6830
1033.0000;4100.2220
1034.0000;4085.8330
1035.0000;4065.7390
1036.0000;4061.9740
1037.0000;4081.8880
1038.0000;4106.0120
1039.0000;4114.2700
1040.0000;4108.9280
1041.0000;4102.7880
1042.0000;4104.1550
1043.0000;4107.8200
1044.0000;4112.0810
1045.0000;4116.2930
1046.0000;4121.4990
1047.0000;4128.1970
1048.0000;4135.8170
1049.0000;4146.2080
1050.0000;4160.3590
1051.0000;4173.4870
1052.0000;4184.0880
1053.0000;4189.8560
1054.0000;4193.1120
1055.0000;4200.4390
1056.0000;4206.0350
1057.0000;4208.6460
1058.0000;4206.6280
1059.0000;4204.5210
1060.0000;4209.4080
1061.0000;4220.2510
1062.0000;4231.9210
1063.0000;4241.4900
1064.0000;4247.7510
1065.0000;4252.8560
1066.0000;4255.9760
1067.0000;4258.0670
1068.0000;4262.2130
1069.0000;4267.7560
1070.0000;4276.8330
1071.0000;4292.3060
1072.0000;4306.9000
1073.0000;4315.2710
1074.0000;4314.3410
1075.0000;4311.4380
1076.0000;4315.9400
1077.0000;4324.0270
1078.0000;4333.9340
1079.0000;4344.9830
1080.0000;4353.3240
1081.0000;4355.0720
1082.0000;4350.2120
1083.0000;4351.6640
1084.0000;4374.5890
1085.0000;4403.2080
1086.0000;4419.6780
1087.0000;4414.8790
1088.0000;4403.9540
1089.0000;4409.0340
1090.0000;4422.7250
1091.0000;4429.8740
1092.0000;4418.8060
1093.0000;4402.1340
1094.0000;4395.5090
1095.0000;4402.5630
1096.0000;4413.8520
1097.0000;4419.8440
1098.0000;4423.2140
1099.0000;4428.1040
1100.0000;4436.0500
1101.0000;4442.7820
1102.0000;4448.3490
1103.0000;4449.8320
1104.0000;4444.7860
1105.0000;4431.9520
1106.0000;4414.8690
1107.0000;4399.8330
1108.0000;4391.6350
1109.0000;4388.4160
1110.0000;4387.0700
1111.0000;4388.1920
1112.0000;4384.1210
1113.0000;4369.4360
1114.0000;4352.5210
1115.0000;4340.5530
1116.0000;4336.8590
1117.0000;4334.2260
1118.0000;4324.0320
1119.0000;4312.2120
1120.0000;4300.8190
1121.0000;4291.5680
1122.0000;4283.7040
1123.0000;4273.8450
1124.0000;4264.3770
1125.0000;4252.8350
1126.0000;4236.5770
1127.0000;4222.9610
1128.0000;4213.9630
1129.0000;4213.2450
1130.0000;4216.8210
1131.0000;4219.8750
1132.0000;4221.9730
1133.0000;4216.9220
1134.0000;4200.0790
1135.0000;4187.0490
1136.0000;4194.9040
1137.0000;4219.1820
1138.0000;4236.4380
1139.0000;4228.3700
1140.0000;4207.5530
1141.0000;4191.2180
1142.0000;4184.5080
1143.0000;4180.2770
1144.0000;4172.0560
1145.0000;4164.4750
1146.0000;4156.2950
1147.0000;4148.0210
1148.0000;4142.1480
1149.0000;4138.8490
1150.0000;4138.8840
1151.0000;4137.4700
1152.0000;4130.1530
1153.0000;4120.9850
1154.0000;4110.6880
1155.0000;4101.8270
1156.0000;4096.8600
1157.0000;4098.8000
1158.0000;4104.6130
1159.0000;4102.0120
1160.0000;4084.3100
1161.0000;4067.6440
1162.0000;4067.7140
1163.0000;4082.2250
1164.0000;4091.9890
1165.0000;4080.6180
1166.0000;4062.4610
1167.0000;4054.4760
1168.0000;4060.1510
1169.0000;4069.5150
1170.0000;4071.6280
1171.0000;4071.5800
1172.0000;4074.7630
1173.0000;4082.9580
1174.0000;4089.0910
1175.0000;4086.6220
1176.0000;4076.5600
1177.0000;4067.7750
1178.0000;4066.7330
1179.0000;4068.5440
1180.0000;4066.6960
1181.0000;4061.6370
1182.0000;4056.7000
1183.0000;4051.4380
1184.0000;4050.4880
1185.0000;4058.0390
1186.0000;4075.8320
1187.0000;4090.8890
1188.0000;4092.7450
1189.0000;4081.1650
1190.0000;4066.7300
1191.0000;4053.6930
1192.0000;4044.7700
1193.0000;4042.4730
1194.0000;4048.8020
1195.0000;4057.9480
1196.0000;4064.2260
1197.0000;4068.8070
1198.0000;4072.5190
1199.0000;4074.2610
1200.0000;4074.8420
1201.0000;4077.3850
1202.0000;4079.3310
1203.0000;4079.4450
1204.0000;4077.1920
1205.0000;4072.3910
1206.0000;4063.9030
1207.0000;4054.6510
1208.0000;4051.7620
1209.0000;4060.6420
1210.0000;4073.9130
1211.0000;4079.8280
1212.0000;4077.3360
1213.0000;4074.3510
1214.0000;4078.7370
1215.0000;4085.0910
1216.0000;4088.9910
1217.0000;4088.8270
1218.0000;4089.0880
1219.0000;4095.2960
1220.0000;4104.1310
1221.0000;4111.6090
1222.0000;4115.3150
1223.0000;4116.2080
1224.0000;4117.9120
1225.0000;4118.6880
1226.0000;4118.3260
1227.0000;4117.5920
1228.0000;4114.9970
1229.0000;4109.5750
1230.0000;4102.1010
1231.0000;4095.9740
1232.0000;4094.1710
1233.0000;4094.9370
1234.0000;4091.4290
1235.0000;4082.8380
1236.0000;4078.0740
1237.0000;4084.2880
1238.0000;4098.1620
1239.0000;4110.4400
1240.0000;4116.5140
1241.0000;4117.0760
1242.0000;4114.6130
1243.0000;4108.1030
1244.0000;4101.5050
1245.0000;4097.4620
1246.0000;4096.1580
1247.0000;4096.6570
1248.0000;4099.6760
1249.0000;4103.7800
1250.0000;4107.1040
1251.0000;4110.2940
1252.0000;4115.0880
1253.0000;4120.6630
1254.0000;4123.2960
1255.0000;4120.6510
1256.0000;4113.9820
1257.0000;4108.0610
1258.0000;4104.8810
1259.0000;4104.5880
1260.0000;4107.1270
1261.0000;4112.1500
1262.0000;4115.7760
1263.0000;4115.5600
1264.0000;4114.2800
1265.0000;4116.0470
1266.0000;4119.4170
1267.0000;4121.3780
1268.0000;4120.3130
1269.0000;4117.0060
1270.0000;4113.5900
1271.0000;4110.0420
1272.0000;4104.9820
1273.0000;4094.3960
1274.0000;4086.8030
1275.0000;4089.7250
1276.0000;4105.8900
1277.0000;4124.3920
1278.0000;4136.5920
1279.0000;4142.9320
1280.0000;4149.2100
1281.0000;4154.9080
1282.0000;4157.0580
1283.0000;4155.1540
1284.0000;4150.9000
1285.0000;4153.3050
1286.0000;4166.4410
1287.0000;4180.0650
1288.0000;4184.5650
1289.0000;4180.1270
1290.0000;4175.8160
1291.0000;4176.3390
1292.0000;4179.4420
1293.0000;4185.1760
1294.0000;4192.3320
1295.0000;4197.4190
1296.0000;4197.9280
1297.0000;4194.5720
1298.0000;4189.4560
1299.0000;4184.0720
1300.0000;4182.9790
1301.0000;4189.6070
1302.0000;4201.9060
1303.0000;4217.1220
1304.0000;4231.4560
1305.0000;4239.2320
1306.0000;4234.0730
1307.0000;4222.5960
1308.0000;4224.0570
1309.0000;4244.3500
1310.0000;4260.3030
1311.0000;4251.8030
1312.0000;4228.0080
1313.0000;4209.5680
1314.0000;4206.6980
1315.0000;4208.4100
1316.0000;4201.5070
1317.0000;4193.0900
1318.0000;4189.4950
1319.0000;4194.5310
1320.0000;4202.2060
1321.0000;4203.0550
1322.0000;4199.3170
1323.0000;4198.4450
1324.0000;4205.1980
1325.0000;4211.9600
1326.0000;4211.9840
1327.0000;4205.3690
1328.0000;4197.7100
1329.0000;4192.0290
1330.0000;4190.8690
1331.0000;4196.8930
1332.0000;4210.3090
1333.0000;4223.5260
1334.0000;4231.8330
1335.0000;4235.5050
1336.0000;4240.5060
1337.0000;4244.7930
1338.0000;4243.5290
1339.0000;4232.5630
1340.0000;4219.6450
1341.0000;4216.2330
1342.0000;4225.7900
1343.0000;4237.3000
1344.0000;4241.9420
1345.0000;4241.9960
1346.0000;4240.6850
1347.0000;4238.2660
1348.0000;4236.9760
1349.0000;4241.4530
1350.0000;4247.2070
1351.0000;4247.1280
1352.0000;4238.8910
1353.0000;4230.6730
1354.0000;4231.6960
1355.0000;4237.0040
1356.0000;4236.3000
1357.0000;4226.4690
1358.0000;4215.3650
1359.0000;4208.7080
1360.0000;4208.3100
1361.0000;4212.3380
1362.0000;4220.8660
1363.0000;4230.9730
1364.0000;4239.6250
1365.0000;4244.2500
1366.0000;4243.3000
1367.0000;4235.1400
1368.0000;4227.3200
1369.0000;4231.6640
1370.0000;4242.6060
1371.0000;4243.4740
1372.0000;4225.2330
1373.0000;4206.2660
1374.0000;4202.9320
1375.0000;4214.6060
1376.0000;4227.7570
1377.0000;4235.7880
1378.0000;4239.2400
1379.0000;4237.3800
1380.0000;4230.1920
1381.0000;4225.2520
1382.0000;4227.3330
1383.0000;4232.0600
1384.0000;4235.4960
1385.0000;4236.9460
1386.0000;4234.9070
1387.0000;4227.9360
1388.0000;4220.2730
1389.0000;4216.2370
1390.0000;4217.4220
1391.0000;4222.4960
1392.0000;4231.1040
1393.0000;4239.3790
1394.0000;4241.9530
1395.0000;4238.9020
1396.0000;4239.1960
1397.0000;4249.8200
1398.0000;4259.8420
1399.0000;4257.3330
1400.0000;4244.8060
1401.0000;4239.5540
1402.0000;4253.8160
1403.0000;4272.1640
1404.0000;4277.2630
1405.0000;4269.4730
1406.0000;4262.8440
1407.0000;4266.7050
1408.0000;4271.9100
1409.0000;4269.3720
1410.0000;4261.3650
1411.0000;4257.9450
1412.0000;4265.3790
1413.0000;4277.2680
1414.0000;4286.8310
1415.0000;4291.9950
1416.0000;4293.3570
1417.0000;4291.3320
1418.0000;4285.4250
1419.0000;4277.9370
1420.0000;4270.5260
1421.0000;4267.2920
1422.0000;4270.7880
1423.0000;4277.4000
1424.0000;4280.7640
1425.0000;4280.9000
1426.0000;4279.8030
1427.0000;4277.4020
1428.0000;4277.7460
1429.0000;4287.2400
1430.0000;4302.6800
1431.0000;4315.5200
1432.0000;4320.6840
1433.0000;4319.3400
1434.0000;4314.9060
1435.0000;4308.5790
1436.0000;4309.4020
1437.0000;4323.4320
1438.0000;4338.6530
1439.0000;4343.8610
1440.0000;4338.1320
1441.0000;4328.5040
1442.0000;4319.2390
1443.0000;4308.8960
1444.0000;4295.2800
1445.0000;4284.1110
1446.0000;4281.4290
1447.0000;4290.5590
1448.0000;4302.9500
1449.0000;4307.0660
1450.0000;4303.6690
1451.0000;4297.2930
1452.0000;4289.2250
1453.0000;4284.0160
1454.0000;4287.4710
1455.0000;4297.4350
1456.0000;4306.3620
1457.0000;4310.3450
1458.0000;4309.8710
1459.0000;4306.2790
1460.0000;4298.9560
1461.0000;4290.4110
1462.0000;4282.1860
1463.0000;4277.8720
1464.0000;4279.2890
1465.0000;4285.3900
1466.0000;4288.0170
1467.0000;4285.4450
1468.0000;4283.0000
1469.0000;4284.4510
1470.0000;4288.9370
1471.0000;4296.5230
1472.0000;4305.6590
1473.0000;4311.7390
1474.0000;4311.8000
1475.0000;4305.8220
1476.0000;4298.4860
1477.0000;4290.9510
1478.0000;4285.5240
1479.0000;4284.2640
1480.0000;4286.9580
1481.0000;4290.1550
1482.0000;4293.2690
1483.0000;4293.5630
1484.0000;4288.7760
1485.0000;4281.7790
1486.0000;4275.2920
1487.0000;4271.5570
1488.0000;4271.9100
1489.0000;4278.0040
1490.0000;4284.8530
1491.0000;4282.0230
1492.0000;4273.8000
1493.0000;4276.1000
1494.0000;4298.5730
1495.0000;4319.7210
1496.0000;4318.8670
1497.0000;4300.9050
1498.0000;4289.0620
1499.0000;4294.8070
1500.0000;4301.7500
1501.0000;4292.9690
1502.0000;4278.9260
1503.0000;4276.0330
1504.0000;4290.8350
1505.0000;4305.1110
1506.0000;4301.7820
1507.0000;4289.5650
1508.0000;4283.4720
1509.0000;4287.5680
1510.0000;4292.8860
1511.0000;4289.4350
1512.0000;4287.6820
1513.0000;4299.7640
1514.0000;4325.3750
1515.0000;4347.1690
1516.0000;4353.0940
1517.0000;4348.7470
1518.0000;4349.3340
1519.0000;4352.3510
1520.0000;4352.1240
1521.0000;4345.1720
1522.0000;4338.7170
1523.0000;4339.8920
1524.0000;4349.2600
1525.0000;4363.4230
1526.0000;4380.9000
1527.0000;4392.1650
1528.0000;4390.3120
1529.0000;4375.8980
1530.0000;4363.5320
1531.0000;4359.3240
1532.0000;4357.2940
1533.0000;4350.6760
1534.0000;4345.3360
1535.0000;4344.3610
1536.0000;4348.9720
1537.0000;4354.6360
1538.0000;4353.5840
1539.0000;4353.3990
1540.0000;4364.3650
1541.0000;4385.1430
1542.0000;4402.1880
1543.0000;4409.0410
1544.0000;4404.7890
1545.0000;4395.3560
1546.0000;4381.7090
1547.0000;4372.1820
1548.0000;4372.6370
1549.0000;4379.3470
1550.0000;4386.6010
1551.0000;4392.9510
1552.0000;4394.2780
1553.0000;4387.5940
1554.0000;4379.2020
1555.0000;4375.9250
1556.0000;4377.2190
1557.0000;4381.5070
1558.0000;4387.9850
1559.0000;4388.3010
1560.0000;4371.8850
1561.0000;4351.6680
1562.0000;4346.7100
1563.0000;4359.5180
1564.0000;4370.5000
1565.0000;4367.0490
1566.0000;4353.5900
1567.0000;4331.6600
1568.0000;4306.9500
1569.0000;4292.4000
1570.0000;4296.8050
1571.0000;4309.8930
1572.0000;4313.4960
1573.0000;4311.8750
1574.0000;4310.9350
1575.0000;4312.1730
1576.0000;4314.9220
1577.0000;4320.1610
1578.0000;4325.7070
1579.0000;4329.3200
1580.0000;4329.4890
1581.0000;4328.2760
1582.0000;4327.7060
1583.0000;4327.0830
1584.0000;4327.8190
1585.0000;4329.2110
1586.0000;4327.9360
1587.0000;4321.4730
1588.0000;4315.2910
1589.0000;4314.6800
1590.0000;4319.8590
1591.0000;4327.2030
1592.0000;4334.9330
1593.0000;4343.0140
1594.0000;4354.8850
1595.0000;4362.1730
1596.0000;4358.2070
1597.0000;4341.6530
1598.0000;4328.8930
1599.0000;4335.2220
1600.0000;4349.4490
1601.0000;4355.2920
1602.0000;4352.4860
1603.0000;4350.2470
1604.0000;4353.6230
1605.0000;4357.5600
1606.0000;4360.4440
1607.0000;4359.9630
1608.0000;4352.4440
1609.0000;4336.7940
1610.0000;4326.6460
1611.0000;4335.9560
1612.0000;4355.6310
1613.0000;4366.9430
1614.0000;4365.3680
1615.0000;4361.3380
1616.0000;4362.5010
1617.0000;4364.1600
1618.0000;4365.4850
1619.0000;4365.5420
1620.0000;4362.7320
1621.0000;4356.5290
1622.0000;4348.7820
1623.0000;4339.7100
1624.0000;4333.9650
1625.0000;4336.2290
1626.0000;4348.1870
1627.0000;4360.4190
1628.0000;4364.4240
1629.0000;4362.1240
1630.0000;4359.1690
1631.0000;4355.9420
1632.0000;4354.0610
1633.0000;4355.0800
1634.0000;4358.7470
1635.0000;4365.6030
1636.0000;4372.5290
1637.0000;4373.5750
1638.0000;4365.7410
1639.0000;4358.9480
1640.0000;4364.8660
1641.0000;4376.3160
1642.0000;4381.9620
1643.0000;4379.4120
1644.0000;4373.4170
1645.0000;4366.1880
1646.0000;4360.6470
1647.0000;4361.5630
1648.0000;4367.7510
1649.0000;4370.5590
1650.0000;4365.6720
1651.0000;4358.2200
1652.0000;4349.9680
1653.0000;4345.2480
1654.0000;4349.3910
1655.0000;4362.7460
1656.0000;4372.2050
1657.0000;4365.8720
1658.0000;4353.5790
1659.0000;4349.7590
1660.0000;4352.0970
1661.0000;4346.9900
1662.0000;4328.2900
1663.0000;4312.0510
1664.0000;4311.0910
1665.0000;4320.5440
1666.0000;4321.7010
1667.0000;4311.9550
1668.0000;4303.4410
1669.0000;4304.6990
1670.0000;4308.7410
1671.0000;4304.3840
1672.0000;4295.1300
1673.0000;4292.3670
1674.0000;4301.5770
1675.0000;4311.5960
1676.0000;4309.4160
1677.0000;4301.7300
1678.0000;4302.0320
1679.0000;4312.0290
1680.0000;4319.9910
1681.0000;4319.5190
1682.0000;4312.1630
1683.0000;4300.4870
1684.0000;4287.8300
1685.0000;4280.5260
1686.0000;4283.2940
1687.0000;4291.3260
1688.0000;4298.2620
1689.0000;4303.0990
1690.0000;4303.1180
1691.0000;4297.0260
1692.0000;4289.6180
1693.0000;4283.3580
1694.0000;4282.5610
1695.0000;4292.3130
1696.0000;4308.4560
1697.0000;4318.9590
1698.0000;4317.1300
1699.0000;4310.7000
1700.0000;4307.7090
1701.0000;4306.8640
1702.0000;4310.8640
1703.0000;4318.6970
1704.0000;4323.0050
1705.0000;4319.9370
1706.0000;4310.7030
1707.0000;4298.0760
1708.0000;4283.9660
1709.0000;4271.1920
1710.0000;4262.7850
1711.0000;4255.1740
1712.0000;4240.8900
1713.0000;4230.7740
1714.0000;4230.0650
1715.0000;4239.2740
1716.0000;4246.4600
1717.0000;4245.5840
1718.0000;4239.5620
1719.0000;4226.1830
1720.0000;4215.3470
1721.0000;4225.1510
1722.0000;4255.8660
1723.0000;4274.7870
1724.0000;4256.5240
1725.0000;4229.5030
1726.0000;4229.3210
1727.0000;4251.1700
1728.0000;4272.6470
1729.0000;4286.1950
1730.0000;4290.5620
1731.0000;4285.2810
1732.0000;4271.5230
1733.0000;4259.7370
1734.0000;4252.8410
1735.0000;4252.1600
1736.0000;4259.7490
1737.0000;4267.6670
1738.0000;4264.0500
1739.0000;4254.2770
1740.0000;4246.4600
1741.0000;4243.8900
1742.0000;4249.9320
1743.0000;4270.2530
1744.0000;4286.4820
1745.0000;4276.7910
1746.0000;4249.7700
1747.0000;4236.0160
1748.0000;4246.7070
1749.0000;4261.1300
1750.0000;4263.6650
1751.0000;4260.1920
1752.0000;4255.4630
1753.0000;4249.6670
1754.0000;4243.5200
1755.0000;4238.0650
1756.0000;4237.2390
1757.0000;4242.9550
1758.0000;4253.3770
1759.0000;4263.2920
1760.0000;4269.6760
1761.0000;4269.5710
1762.0000;4260.9230
1763.0000;4250.6500
1764.0000;4247.9500
1765.0000;4253.0030
1766.0000;4264.5590
1767.0000;4279.8610
1768.0000;4287.1010
1769.0000;4275.5300
1770.0000;4259.1380
1771.0000;4256.2240
1772.0000;4265.6750
1773.0000;4278.9570
1774.0000;4292.9500
1775.0000;4299.4230
1776.0000;4291.6860
1777.0000;4276.5910
1778.0000;4272.1490
1779.0000;4275.4160
1780.0000;4270.3480
1781.0000;4251.1030
1782.0000;4231.6000
1783.0000;4217.5970
1784.0000;4214.0300
1785.0000;4217.7940
1786.0000;4228.9860
1787.0000;4235.0050
1788.0000;4228.7860
1789.0000;4216.6130
1790.0000;4201.3370
1791.0000;4190.0440
1792.0000;4190.4630
1793.0000;4204.7470
1794.0000;4218.0660
1795.0000;4221.3190
1796.0000;4221.1090
1797.0000;4226.5430
1798.0000;4231.5920
1799.0000;4231.8330
1800.0000;4226.0450
1801.0000;4219.2880
1802.0000;4216.1230
1803.0000;4213.4380
1804.0000;4207.8640
1805.0000;4200.8810
1806.0000;4190.7390
1807.0000;4179.2580
1808.0000;4171.7220
1809.0000;4170.3960
1810.0000;4174.1100
1811.0000;4176.1410
1812.0000;4177.2300
1813.0000;4176.3270
1814.0000;4172.9860
1815.0000;4169.9870
1816.0000;4169.8010
1817.0000;4170.5700
1818.0000;4169.5660
1819.0000;4167.3140
1820.0000;4164.4990
1821.0000;4161.5550
1822.0000;4160.3880
1823.0000;4161.1700
1824.0000;4165.4200
1825.0000;4175.1650
1826.0000;4186.3580
1827.0000;4190.3360
1828.0000;4183.4340
1829.0000;4172.7950
1830.0000;4165.7850
1831.0000;4161.5750
1832.0000;4157.9600
1833.0000;4157.6270
1834.0000;4161.9780
1835.0000;4171.1950
1836.0000;4179.0230
1837.0000;4178.8410
1838.0000;4176.0550
1839.0000;4182.3030
1840.0000;4192.4030
1841.0000;4191.2950
1842.0000;4173.6500
1843.0000;4156.4610
1844.0000;4152.9900
1845.0000;4159.4860
1846.0000;4168.5520
1847.0000;4178.0490
1848.0000;4177.7320
1849.0000;4163.2650
1850.0000;4152.0110
1851.0000;4159.4170
1852.0000;4174.9870
1853.0000;4183.5310
1854.0000;4185.3120
1855.0000;4188.9580
1856.0000;4195.6460
1857.0000;4195.7860
1858.0000;4182.7870
1859.0000;4166.4150
1860.0000;4160.5370
1861.0000;4164.5410
1862.0000;4166.2640
1863.0000;4162.8850
1864.0000;4160.5000
1865.0000;4162.8690
1866.0000;4165.4600
1867.0000;4161.4400
1868.0000;4154.3690
1869.0000;4152.3480
1870.0000;4158.2510
1871.0000;4169.7770
1872.0000;4185.8400
1873.0000;4199.8330
1874.0000;4206.1840
1875.0000;4203.4400
1876.0000;4201.6350
1877.0000;4202.0350
1878.0000;4202.3610
1879.0000;4202.4930
1880.0000;4202.1860
1881.0000;4201.2080
1882.0000;4199.9480
1883.0000;4199.0980
1884.0000;4199.0510
1885.0000;4199.4490
1886.0000;4199.9540
1887.0000;4201.0600
1888.0000;4202.2170
1889.0000;4204.5910
1890.0000;4211.1800
1891.0000;4220.0150
1892.0000;4223.3130
1893.0000;4216.4380
1894.0000;4206.5890
1895.0000;4202.1600
1896.0000;4200.4930
1897.0000;4195.3480
1898.0000;4189.8240
1899.0000;4190.6650
1900.0000;4200.7730
1901.0000;4211.3440
1902.0000;4213.8920
1903.0000;4210.4670
1904.0000;4205.2160
1905.0000;4199.6220
1906.0000;4197.8170
1907.0000;4202.0870
1908.0000;4209.8750
1909.0000;4219.8880
1910.0000;4227.5400
1911.0000;4227.9850
1912.0000;4221.6630
1913.0000;4215.7830
1914.0000;4213.1960
1915.0000;4215.6630
1916.0000;4225.9940
1917.0000;4235.6810
1918.0000;4233.1090
1919.0000;4225.8200
1920.0000;4232.2360
1921.0000;4251.5370
1922.0000;4266.4170
1923.0000;4267.6060
1924.0000;4260.3020
1925.0000;4252.7330
1926.0000;4243.3960
1927.0000;4232.7790
1928.0000;4225.6550
1929.0000;4227.6870
1930.0000;4241.2950
1931.0000;4250.5210
1932.0000;4237.6910
1933.0000;4221.2830
1934.0000;4226.6490
1935.0000;4247.3050
1936.0000;4259.4520
1937.0000;4256.9400
1938.0000;4251.8990
1939.0000;4251.2960
1940.0000;4253.2570
1941.0000;4258.9670
1942.0000;4266.5330
1943.0000;4271.6540
1944.0000;4273.3490
1945.0000;4275.9380
1946.0000;4281.4260
1947.0000;4286.7530
1948.0000;4292.1020
1949.0000;4294.4410
1950.0000;4291.9590
1951.0000;4286.4620
1952.0000;4286.6580
1953.0000;4295.5160
1954.0000;4304.4670
1955.0000;4308.0240
1956.0000;4308.2920
1957.0000;4311.9160
1958.0000;4313.0070
1959.0000;4303.2870
1960.0000;4284.8030
1961.0000;4273.2300
1962.0000;4278.7380
1963.0000;4292.1000
1964.0000;4300.2200
1965.0000;4308.1180
1966.0000;4321.5420
1967.0000;4334.6500
1968.0000;4337.6180
1969.0000;4326.7480
1970.0000;4320.8590
1971.0000;4335.6170
1972.0000;4358.3250
1973.0000;4377.8930
1974.0000;4389.7760
1975.0000;4394.3350
1976.0000;4387.7750
1977.0000;4372.3020
1978.0000;4350.4070
1979.0000;4335.6000
1980.0000;4340.1510
1981.0000;4355.5520
1982.0000;4358.1590
1983.0000;4350.5980
1984.0000;4346.5950
1985.0000;4349.7320
1986.0000;4354.1050
1987.0000;4356.0680
1988.0000;4358.2340
1989.0000;4363.4060
1990.0000;4369.1440
1991.0000;4372.6940
1992.0000;4373.9050
1993.0000;4380.5060
1994.0000;4395.5140
1995.0000;4402.9040
1996.0000;4391.1200
1997.0000;4369.7150
1998.0000;4352.7560
1999.0000;4345.4250
2000.0000;4350.8790
2001.0000;4369.2160
2002.0000;4378.9380
2003.0000;4364.7100
2004.0000;4350.5090
2005.0000;4361.2700
2006.0000;4383.0170
2007.0000;4396.1950
2008.0000;4397.9060
2009.0000;4394.6710
2010.0000;4387.4890
2011.0000;4382.1750
2012.0000;4385.2090
2013.0000;4388.0950
2014.0000;4379.3890
2015.0000;4367.6270
2016.0000;4365.4730
2017.0000;4374.3670
2018.0000;4384.0110
2019.0000;4389.7560
2020.0000;4395.3640
2021.0000;4404.5250
2022.0000;4410.5060
2023.0000;4409.9870
2024.0000;4403.9330
2025.0000;4402.4750
2026.0000;4405.3490
2027.0000;4400.3130
2028.0000;4382.1340
2029.0000;4367.5310
2030.0000;4370.0060
2031.0000;4383.0170
2032.0000;4394.3280
2033.0000;4401.9490
2034.0000;4401.7200
2035.0000;4393.1760
2036.0000;4389.3460
2037.0000;4398.6090
2038.0000;4408.1420
2039.0000;4409.2330
2040.0000;4402.1580
2041.0000;4389.1140
2042.0000;4373.8260
2043.0000;4364.2710
2044.0000;4365.2180
2045.0000;4371.2680
2046.0000;4379.1760
2047.0000;4386.1000
2048.0000;4389.6330
2049.0000;4386.8110
2050.0000;4376.5020
2051.0000;4362.9820
2052.0000;4360.4120
2053.0000;4372.0540
2054.0000;4382.9540
2055.0000;4382.4210
2056.0000;4380.8000
2057.0000;4387.6100
2058.0000;4397.6670
2059.0000;4408.7100
2060.0000;4416.6060
2061.0000;4419.7660
2062.0000;4416.2270
2063.0000;4410.4020
2064.0000;4406.3390
2065.0000;4402.9000
2066.0000;4397.6440
2067.0000;4396.7640
2068.0000;4406.1510
2069.0000;4422.0190
2070.0000;4429.7530
2071.0000;4425.0370
2072.0000;4418.7610
2073.0000;4417.3200
2074.0000;4416.7800
2075.0000;4416.1810
2076.0000;4414.0130
2077.0000;4406.4570
2078.0000;4396.2830
2079.0000;4389.5770
2080.0000;4389.0030
2081.0000;4390.3220
2082.0000;4391.0920
2083.0000;4393.4460
2084.0000;4397.5550
2085.0000;4401.7120
2086.0000;4402.5290
2087.0000;4403.2180
2088.0000;4415.0450
2089.0000;4436.0930
2090.0000;4446.1740
2091.0000;4435.3860
2092.0000;4424.3350
2093.0000;4434.2050
2094.0000;4448.9350
2095.0000;4453.2400
2096.0000;4448.2670
2097.0000;4439.8590
2098.0000;4430.5400
2099.0000;4426.7500
2100.0000;4432.5170
2101.0000;4438.0070
2102.0000;4434.0020
2103.0000;4430.7150
2104.0000;4439.3530
2105.0000;4451.7550
2106.0000;4454.4440
2107.0000;4447.4120
2108.0000;4443.3530
2109.0000;4445.2870
2110.0000;4444.1510
2111.0000;4434.1540
2112.0000;4428.0000
2113.0000;4436.9130
2114.0000;4452.3770
2115.0000;4461.9680
2116.0000;4463.5510
2117.0000;4462.5630
2118.0000;4458.6730
2119.0000;4451.1000
2120.0000;4440.5040
2121.0000;4436.3280
2122.0000;4446.5970
2123.0000;4461.6220
2124.0000;4466.4480
2125.0000;4463.8110
2126.0000;4465.2000
2127.0000;4468.4990
2128.0000;4465.6790
2129.0000;4454.3910
2130.0000;4442.8960
2131.0000;4437.5070
2132.0000;4434.9420
2133.0000;4427.1600
2134.0000;4422.1150
2135.0000;4426.3510
2136.0000;4436.5640
2137.0000;4439.4380
2138.0000;4431.6070
2139.0000;4419.1490
2140.0000;4405.4050
2141.0000;4396.9080
2142.0000;4398.0620
2143.0000;4407.1010
2144.0000;4416.9360
2145.0000;4424.4090
2146.0000;4423.6010
2147.0000;4413.9100
2148.0000;4405.6260
2149.0000;4402.8910
2150.0000;4406.2640
2151.0000;4416.6230
2152.0000;4427.3000
2153.0000;4431.7050
2154.0000;4429.2470
2155.0000;4422.4730
2156.0000;4414.9650
2157.0000;4418.5890
2158.0000;4432.8540
2159.0000;4438.8730
2160.0000;4428.1170
2161.0000;4413.6460
2162.0000;4404.8580
2163.0000;4400.0440
2164.0000;4392.7560
2165.0000;4393.5970
2166.0000;4412.2370
2167.0000;4441.0180
2168.0000;4452.3180
2169.0000;4439.5600
2170.0000;4424.5060
2171.0000;4419.1550
2172.0000;4416.7130
2173.0000;4415.1990
2174.0000;4413.1110
2175.0000;4402.4510
2176.0000;4391.6680
2177.0000;4391.0890
2178.0000;4401.5660
2179.0000;4415.1920
2180.0000;4427.3970
2181.0000;4435.3400
2182.0000;4435.6280
2183.0000;4431.7710
2184.0000;4429.8020
2185.0000;4427.1330
2186.0000;4421.2830
2187.0000;4418.3480
2188.0000;4428.7070
2189.0000;4446.4610
2190.0000;4445.2310
2191.0000;4419.5280
2192.0000;4400.0520
2193.0000;4403.4100
2194.0000;4409.2310
2195.0000;4399.1540
2196.0000;4386.4260
2197.0000;4379.0970
2198.0000;4378.2220
2199.0000;4379.8720
2200.0000;4383.1400
2201.0000;4379.8190
2202.0000;4369.5420
2203.0000;4368.4650
2204.0000;4384.7070
2205.0000;4394.8890
2206.0000;4379.0860
2207.0000;4358.3430
2208.0000;4356.1390
2209.0000;4367.6650
2210.0000;4380.4690
2211.0000;4392.5460
2212.0000;4399.7080
2213.0000;4398.7610
2214.0000;4393.8170
2215.0000;4387.2360
2216.0000;4383.1860
2217.0000;4386.8220
2218.0000;4390.1160
2219.0000;4381.8800
2220.0000;4371.2240
2221.0000;4371.5580
2222.0000;4379.3130
2223.0000;4378.9950
2224.0000;4370.8410
2225.0000;4371.6690
2226.0000;4385.9900
2227.0000;4397.3980
2228.0000;4394.0130
2229.0000;4388.7880
2230.0000;4395.4610
2231.0000;4405.1680
2232.0000;4408.4540
2233.0000;4407.9410
2234.0000;4413.8310
2235.0000;4423.0540
2236.0000;4425.7030
2237.0000;4419.4720
2238.0000;4416.1310
2239.0000;4422.2200
2240.0000;4425.8310
2241.0000;4417.9260
2242.0000;4408.3290
2243.0000;4408.5070
2244.0000;4411.4560
2245.0000;4402.5650
2246.0000;4387.5860
2247.0000;4381.3850
2248.0000;4385.8800
2249.0000;4384.6410
2250.0000;4373.0870
2251.0000;4366.2740
2252.0000;4373.0000
2253.0000;4379.2300
2254.0000;4371.2880
2255.0000;4358.3270
2256.0000;4348.5660
2257.0000;4345.1600
2258.0000;4348.7570
2259.0000;4358.5780
2260.0000;4364.4520
2261.0000;4364.1300
2262.0000;4365.5040
2263.0000;4371.1250
2264.0000;4380.1380
2265.0000;4393.3380
2266.0000;4401.9280
2267.0000;4400.1280
2268.0000;4391.4550
2269.0000;4385.2700
2270.0000;4384.5180
2271.0000;4395.0470
2272.0000;4413.3360
2273.0000;4421.5650
2274.0000;4414.9340
2275.0000;4406.0840
2276.0000;4401.0680
2277.0000;4396.5970
2278.0000;4392.5290
2279.0000;4387.6110
2280.0000;4377.8130
2281.0000;4368.6710
2282.0000;4361.5370
2283.0000;4360.6620
2284.0000;4366.0790
2285.0000;4376.8610
2286.0000;4386.3470
2287.0000;4391.1350
2288.0000;4392.9060
2289.0000;4391.7010
2290.0000;4389.9340
2291.0000;4390.5300
2292.0000;4392.3760
2293.0000;4397.2240
2294.0000;4398.1020
2295.0000;4386.6750
2296.0000;4369.2290
2297.0000;4356.6060
2298.0000;4352.3220
2299.0000;4350.8090
2300.0000;4353.2810
2301.0000;4360.0450
2302.0000;4369.6420
2303.0000;4380.9870
2304.0000;4392.2320
2305.0000;4402.0440
2306.0000;4413.0260
2307.0000;4419.6050
2308.0000;4425.9850
2309.0000;4424.9120
2310.0000;4414.0610
2311.0000;4397.0590
2312.0000;4387.0090
2313.0000;4387.1550
2314.0000;4389.3790
2315.0000;4392.2550
2316.0000;4396.7940
2317.0000;4401.7690
2318.0000;4406.2500
2319.0000;4409.9080
2320.0000;4409.3470
2321.0000;4403.1260
2322.0000;4394.6240
2323.0000;4387.1760
2324.0000;4386.1020
2325.0000;4396.1340
2326.0000;4413.4590
2327.0000;4426.5980
2328.0000;4428.2770
2329.0000;4414.9610
2330.0000;4387.1480
2331.0000;4367.2030
2332.0000;4368.4780
2333.0000;4381.3430
2334.0000;4396.3450
2335.0000;4408.0000
2336.0000;4406.9460
2337.0000;4398.5300
2338.0000;4397.1050
2339.0000;4400.4920
2340.0000;4406.1040
2341.0000;4411.5190
2342.0000;4411.7280
2343.0000;4405.4970
2344.0000;4398.6240
2345.0000;4393.8130
2346.0000;4388.1640
2347.0000;4380.8460
2348.0000;4371.9480
2349.0000;4357.4520
2350.0000;4354.7000
2351.0000;4381.9620
2352.0000;4413.9970
2353.0000;4411.1860
2354.0000;4389.3810
2355.0000;4390.3710
2356.0000;4409.1740
2357.0000;4418.1850
2358.0000;4414.5810
2359.0000;4415.9050
2360.0000;4425.6060
2361.0000;4434.1880
2362.0000;4437.4440
2363.0000;4430.7120
2364.0000;4411.3330
2365.0000;4392.7760
2366.0000;4389.9850
2367.0000;4392.6330
2368.0000;4379.9070
2369.0000;4365.8610
2370.0000;4365.7810
2371.0000;4377.2330
2372.0000;4383.3120
2373.0000;4383.2150
2374.0000;4384.9390
2375.0000;4388.6280
2376.0000;4389.4370
2377.0000;4386.1190
2378.0000;4387.1160
2379.0000;4397.0700
2380.0000;4407.8420
2381.0000;4413.0050
2382.0000;4415.9730
2383.0000;4424.4550
2384.0000;4429.2700
2385.0000;4422.2340
2386.0000;4412.7670
2387.0000;4423.6890
2388.0000;4444.6340
2389.0000;4445.5500
2390.0000;4424.5050
2391.0000;4405.9320
2392.0000;4397.3230
2393.0000;4396.4850
2394.0000;4403.9510
2395.0000;4409.4700
2396.0000;4405.1690
2397.0000;4401.1230
2398.0000;4405.0150
2399.0000;4409.2020
2400.0000;4408.6000
2401.0000;4402.5520
2402.0000;4387.1340
2403.0000;4375.1580
2404.0000;4386.2120
2405.0000;4412.2260
2406.0000;4427.7840
2407.0000;4427.5790
2408.0000;4419.7540
2409.0000;4406.5310
2410.0000;4398.3580
2411.0000;4400.7460
2412.0000;4407.5110
2413.0000;4415.3810
2414.0000;4421.5760
2415.0000;4422.7630
2416.0000;4421.8160
2417.0000;4423.0300
2418.0000;4424.1000
2419.0000;4424.2610
2420.0000;4424.5550
2421.0000;4427.3820
2422.0000;4430.4850
2423.0000;4432.3540
2424.0000;4430.2730
2425.0000;4421.5200
2426.0000;4407.5380
2427.0000;4394.0780
2428.0000;4386.0030
2429.0000;4389.4690
2430.0000;4404.7120
2431.0000;4407.1960
2432.0000;4384.3080
2433.0000;4364.0640
2434.0000;4366.5020
2435.0000;4372.5700
2436.0000;4365.2720
2437.0000;4355.5080
2438.0000;4349.3220
2439.0000;4348.3540
2440.0000;4349.7860
2441.0000;4357.3830
2442.0000;4373.1250
2443.0000;4389.9350
2444.0000;4394.9640
2445.0000;4387.0190
2446.0000;4380.1880
2447.0000;4377.6700
2448.0000;4380.0460
2449.0000;4387.9550
2450.0000;4399.0430
2451.0000;4410.0360
2452.0000;4413.8830
2453.0000;4406.6440
2454.0000;4399.6660
2455.0000;4402.5160
2456.0000;4408.5470
2457.0000;4413.8490
2458.0000;4413.4000
2459.0000;4402.3020
2460.0000;4385.4300
2461.0000;4369.8920
2462.0000;4360.6160
2463.0000;4355.5000
2464.0000;4361.6300
2465.0000;4385.0610
2466.0000;4413.0320
2467.0000;4409.3120
2468.0000;4375.5140
2469.0000;4358.2100
2470.0000;4369.0370
2471.0000;4374.6390
2472.0000;4365.8660
2473.0000;4358.3490
2474.0000;4357.8720
2475.0000;4358.7440
2476.0000;4358.0150
2477.0000;4355.9660
2478.0000;4350.2490
2479.0000;4350.9430
2480.0000;4366.4280
2481.0000;4385.2030
2482.0000;4393.4970
2483.0000;4393.1310
2484.0000;4394.3510
2485.0000;4394.2020
2486.0000;4395.1460
2487.0000;4396.3870
2488.0000;4397.5140
2489.0000;4398.3120
2490.0000;4399.7870
2491.0000;4401.0130
2492.0000;4400.4560
2493.0000;4397.2360
2494.0000;4390.5620
2495.0000;4381.3720
2496.0000;4371.7750
2497.0000;4364.4910
2498.0000;4365.5910
2499.0000;4377.5640
2500.0000;4386.7140
2501.0000;4381.5480
2502.0000;4379.8600
2503.0000;4396.9560
2504.0000;4413.5800
2505.0000;4414.0780
2506.0000;4405.2760
2507.0000;4400.3800
2508.0000;4396.4530
2509.0000;4391.0160
2510.0000;4390.0670
2511.0000;4401.5310
2512.0000;4414.5120
2513.0000;4405.2130
2514.0000;4380.2130
2515.0000;4367.6590
2516.0000;4369.9410
2517.0000;4367.6290
2518.0000;4361.1210
2519.0000;4357.4580
2520.0000;4358.6730
2521.0000;4362.5400
2522.0000;4367.1000
2523.0000;4365.5110
2524.0000;4355.0170
2525.0000;4346.8160
2526.0000;4347.9550
2527.0000;4353.2210
2528.0000;4358.8650
2529.0000;4364.8710
2530.0000;4370.4340
2531.0000;4372.9580
2532.0000;4372.2620
2533.0000;4368.0570
2534.0000;4365.6920
2535.0000;4357.4860
2536.0000;4331.8140
2537.0000;4307.8580
2538.0000;4309.2810
2539.0000;4326.5610
2540.0000;4329.2790
2541.0000;4322.3220
2542.0000;4318.4770
2543.0000;4316.8230
2544.0000;4312.6530
2545.0000;4307.8210
2546.0000;4303.8050
2547.0000;4303.4560
2548.0000;4312.5890
2549.0000;4327.6050
2550.0000;4323.5320
2551.0000;4297.2500
2552.0000;4286.3540
2553.0000;4303.2390
2554.0000;4318.6100
2555.0000;4320.2300
2556.0000;4321.6410
2557.0000;4328.0950
2558.0000;4330.0450
2559.0000;4323.6140
2560.0000;4317.6480
2561.0000;4319.3840
2562.0000;4324.3980
2563.0000;4329.2620
2564.0000;4331.6030
2565.0000;4329.4000
2566.0000;4323.9610
2567.0000;4316.9160
2568.0000;4313.5850
2569.0000;4320.2580
2570.0000;4328.8980
2571.0000;4324.7160
2572.0000;4315.1890
2573.0000;4311.2900
2574.0000;4315.5220
2575.0000;4331.7330
2576.0000;4347.7610
2577.0000;4338.2530
2578.0000;4313.6630
2579.0000;4316.7220
2580.0000;4340.0940
2581.0000;4338.8540
2582.0000;4316.6860
2583.0000;4315.1460
2584.0000;4335.6000
2585.0000;4350.2090
2586.0000;4350.5380
2587.0000;4343.9120
2588.0000;4331.3640
2589.0000;4313.4080
2590.0000;4296.0250
2591.0000;4294.5650
2592.0000;4314.9150
2593.0000;4326.6410
2594.0000;4314.7660
2595.0000;4299.1440
2596.0000;4290.1670
2597.0000;4286.2340
2598.0000;4288.0930
2599.0000;4290.3350
2600.0000;4287.2840
2601.0000;4285.8340
2602.0000;4290.1710
2603.0000;4294.4630
2604.0000;4292.8390
2605.0000;4293.8690
2606.0000;4307.3910
2607.0000;4316.2430
2608.0000;4303.3360
2609.0000;4287.7760
2610.0000;4292.8990
2611.0000;4307.3390
2612.0000;4316.7380
2613.0000;4319.8330
2614.0000;4316.4820
2615.0000;4307.7830
2616.0000;4299.9980
2617.0000;4296.0720
2618.0000;4299.8400
2619.0000;4305.5170
2620.0000;4297.8840
2621.0000;4284.4790
2622.0000;4281.4830
2623.0000;4286.5200
2624.0000;4286.0220
2625.0000;4282.9030
2626.0000;4283.5900
2627.0000;4287.3920
2628.0000;4290.8370
2629.0000;4291.9960
2630.0000;4288.2140
2631.0000;4282.1840
2632.0000;4285.9060
2633.0000;4296.9250
2634.0000;4295.4520
2635.0000;4281.3200
2636.0000;4270.6130
2637.0000;4269.5300
2638.0000;4277.8870
2639.0000;4293.4370
2640.0000;4301.5470
2641.0000;4296.7590
2642.0000;4289.6780
2643.0000;4284.0260
2644.0000;4282.6360
2645.0000;4287.1300
2646.0000;4294.0180
2647.0000;4300.1430
2648.0000;4300.0720
2649.0000;4292.1230
2650.0000;4290.1940
2651.0000;4299.6940
2652.0000;4300.0840
2653.0000;4283.4640
2654.0000;4271.1270
2655.0000;4273.1820
2656.0000;4276.7940
2657.0000;4275.7200
2658.0000;4275.9930
2659.0000;4279.3200
2660.0000;4283.3880
2661.0000;4286.2780
2662.0000;4291.8930
2663.0000;4302.3580
2664.0000;4304.0830
2665.0000;4288.6460
2666.0000;4273.6440
2667.0000;4272.1460
2668.0000;4273.3400
2669.0000;4269.2760
2670.0000;4263.1360
2671.0000;4254.2940
2672.0000;4249.6810
2673.0000;4253.7340
2674.0000;4258.6290
2675.0000;4255.1910
2676.0000;4253.2600
2677.0000;4260.2630
2678.0000;4268.0280
2679.0000;4270.7200
2680.0000;4267.0240
2681.0000;4257.9910
2682.0000;4244.0300
2683.0000;4224.2430
2684.0000;4214.9130
2685.0000;4227.4270
2686.0000;4246.5730
2687.0000;4251.7540
2688.0000;4245.4960
2689.0000;4228.5630
2690.0000;4219.9900
2691.0000;4248.3710
2692.0000;4271.3530
2693.0000;4240.2920
2694.0000;4200.8510
2695.0000;4202.8030
2696.0000;4219.8880
2697.0000;4214.7140
2698.0000;4210.1730
2699.0000;4226.2270
2700.0000;4241.8990
2701.0000;4237.1350
2702.0000;4221.8450
2703.0000;4211.2670
2704.0000;4206.0180
2705.0000;4207.4890
2706.0000;4211.1630
2707.0000;4205.4240
2708.0000;4198.7060
2709.0000;4197.9850
2710.0000;4202.4700
2711.0000;4207.2740
2712.0000;4216.6030
2713.0000;4234.5910
2714.0000;4250.9370
2715.0000;4259.9630
2716.0000;4258.1500
2717.0000;4250.1830
2718.0000;4241.9710
2719.0000;4247.8280
2720.0000;4254.7980
2721.0000;4247.2460
2722.0000;4233.4510
2723.0000;4223.5760
2724.0000;4215.6510
2725.0000;4204.1870
2726.0000;4195.7380
2727.0000;4187.8810
2728.0000;4188.6540
2729.0000;4202.4790
2730.0000;4213.4740
2731.0000;4199.4850
2732.0000;4182.1780
2733.0000;4189.4260
2734.0000;4201.8240
2735.0000;4197.9060
2736.0000;4189.9550
2737.0000;4189.4400
2738.0000;4192.2540
2739.0000;4194.5550
2740.0000;4197.2730
2741.0000;4200.3750
2742.0000;4202.6320
2743.0000;4205.8160
2744.0000;4201.5350
2745.0000;4183.1790
2746.0000;4167.1470
2747.0000;4167.5100
2748.0000;4178.5000
2749.0000;4190.6770
2750.0000;4203.2480
2751.0000;4212.4190
2752.0000;4215.3470
2753.0000;4211.6050
2754.0000;4211.0090
2755.0000;4225.4010
2756.0000;4231.2780
2757.0000;4211.8540
2758.0000;4189.3490
2759.0000;4182.5280
2760.0000;4182.7260
2761.0000;4183.8420
2762.0000;4187.1150
2763.0000;4189.8410
2764.0000;4191.5140
2765.0000;4191.0900
2766.0000;4191.3060
2767.0000;4194.0620
2768.0000;4188.4180
2769.0000;4170.2210
2770.0000;4158.8430
2771.0000;4165.4600
2772.0000;4178.6350
2773.0000;4190.4480
2774.0000;4198.1460
2775.0000;4197.8850
2776.0000;4197.3700
2777.0000;4199.3340
2778.0000;4193.0670
2779.0000;4177.0090
2780.0000;4167.7500
2781.0000;4171.5740
2782.0000;4173.9520
2783.0000;4171.2790
2784.0000;4172.4960
2785.0000;4178.7350
2786.0000;4183.7650
2787.0000;4185.1080
2788.0000;4184.2010
2789.0000;4181.8590
2790.0000;4182.7160
2791.0000;4187.5780
2792.0000;4194.5860
2793.0000;4201.7030
2794.0000;4209.6180
2795.0000;4212.5230
2796.0000;4200.5680
2797.0000;4177.8400
2798.0000;4165.3990
2799.0000;4164.0460
2800.0000;4153.3870
2801.0000;4141.1860
2802.0000;4139.3440
2803.0000;4146.0910
2804.0000;4145.9240
2805.0000;4140.2710
2806.0000;4130.4860
2807.0000;4125.1880
2808.0000;4137.5050
2809.0000;4157.0840
2810.0000;4163.1900
2811.0000;4159.7150
2812.0000;4159.2160
2813.0000;4158.9920
2814.0000;4158.1460
2815.0000;4162.4300
2816.0000;4179.9680
2817.0000;4195.2430
2818.0000;4192.7520
2819.0000;4183.3640
2820.0000;4183.4510
2821.0000;4184.8830
2822.0000;4183.3730
2823.0000;4177.8910
2824.0000;4166.6940
2825.0000;4161.0760
2826.0000;4168.3580
2827.0000;4178.9770
2828.0000;4185.1050
2829.0000;4189.9460
2830.0000;4193.9390
2831.0000;4185.8840
2832.0000;4163.9960
2833.0000;4148.5160
2834.0000;4149.9470
2835.0000;4156.9800
2836.0000;4165.2530
2837.0000;4175.1260
2838.0000;4181.3510
2839.0000;4172.4860
2840.0000;4150.4660
2841.0000;4142.4690
2842.0000;4151.5440
2843.0000;4148.7970
2844.0000;4137.2480
2845.0000;4140.6680
2846.0000;4154.4190
2847.0000;4152.8520
2848.0000;4141.2810
2849.0000;4143.6260
2850.0000;4153.6210
2851.0000;4154.4120
2852.0000;4149.9140
2853.0000;4151.5700
2854.0000;4152.4300
2855.0000;4142.6780
2856.0000;4130.7000
2857.0000;4126.7340
2858.0000;4126.9040
2859.0000;4122.9670
2860.0000;4117.8170
2861.0000;4108.7260
2862.0000;4110.8000
2863.0000;4134.3030
2864.0000;4154.1430
2865.0000;4149.4620
2866.0000;4141.9200
2867.0000;4145.9380
2868.0000;4141.7240
2869.0000;4123.2000
2870.0000;4107.0760
2871.0000;4102.5030
2872.0000;4098.5740
2873.0000;4093.1430
2874.0000;4086.5890
2875.0000;4080.8470
2876.0000;4080.9540
2877.0000;4087.8750
2878.0000;4094.5260
2879.0000;4100.1750
2880.0000;4111.4850
2881.0000;4122.2640
2882.0000;4122.2200
2883.0000;4114.8900
2884.0000;4116.9150
2885.0000;4123.4250
2886.0000;4125.4220
2887.0000;4124.0380
2888.0000;4121.1410
2889.0000;4120.5000
2890.0000;4127.2080
2891.0000;4136.4220
2892.0000;4142.7180
2893.0000;4145.9820
2894.0000;4147.2700
2895.0000;4148.0230
2896.0000;4151.0170
2897.0000;4151.1590
2898.0000;4146.5660
2899.0000;4140.5320
2900.0000;4135.2540
2901.0000;4130.4430
2902.0000;4127.9620
2903.0000;4133.5000
2904.0000;4144.9350
2905.0000;4145.7160
2906.0000;4134.5390
2907.0000;4125.1470
2908.0000;4119.8120
2909.0000;4113.3050
2910.0000;4108.2710
2911.0000;4104.3140
2912.0000;4102.7290
2913.0000;4099.9760
2914.0000;4098.8950
2915.0000;4097.8880
2916.0000;4103.8570
2917.0000;4123.2160
2918.0000;4140.9850
2919.0000;4143.9400
2920.0000;4138.7850
2921.0000;4134.7880
2922.0000;4127.1240
2923.0000;4116.4380
2924.0000;4109.5580
2925.0000;4110.1810
2926.0000;4105.9440
2927.0000;4095.0520
2928.0000;4092.1830
2929.0000;4099.8920
2930.0000;4104.7770
2931.0000;4104.1170
2932.0000;4100.9360
2933.0000;4096.4590
2934.0000;4092.3090
2935.0000;4093.0270
2936.0000;4106.4330
2937.0000;4119.6590
2938.0000;4110.9690
2939.0000;4092.5370
2940.0000;4086.5440
2941.0000;4079.3220
2942.0000;4056.6050
2943.0000;4043.1450
2944.0000;4054.3800
2945.0000;4069.9170
2946.0000;4074.9670
2947.0000;4076.5600
2948.0000;4076.1610
2949.0000;4076.4640
2950.0000;4079.5360
2951.0000;4088.0350
2952.0000;4100.4400
2953.0000;4113.7980
2954.0000;4120.5320
2955.0000;4114.0540
2956.0000;4098.2430
2957.0000;4091.2980
2958.0000;4089.0770
2959.0000;4076.7820
2960.0000;4066.4080
2961.0000;4066.9120
2962.0000;4076.0830
2963.0000;4086.9240
2964.0000;4094.5030
2965.0000;4093.4020
2966.0000;4087.0960
2967.0000;4079.7580
2968.0000;4074.6830
2969.0000;4074.2990
2970.0000;4068.6960
2971.0000;4057.9970
2972.0000;4053.7500
2973.0000;4058.1240
2974.0000;4063.9590
2975.0000;4067.4520
2976.0000;4060.9310
2977.0000;4049.3710
2978.0000;4044.0980
2979.0000;4044.4550
2980.0000;4043.3150
2981.0000;4046.0430
2982.0000;4053.1300
2983.0000;4066.5230
2984.0000;4087.2140
2985.0000;4098.5530
2986.0000;4091.2790
2987.0000;4071.8650
2988.0000;4047.7810
2989.0000;4038.0930
2990.0000;4050.3260
2991.0000;4068.8280
2992.0000;4083.8130
2993.0000;4081.0240
2994.0000;4063.4700
2995.0000;4055.3410
2996.0000;4054.7950
2997.0000;4051.7300
2998.0000;4052.9450
2999.0000;4061.4440
3000.0000;4070.6590
3001.0000;4074.3750
3002.0000;4069.3360
3003.0000;4055.4180
3004.0000;4044.6380
3005.0000;4044.3880
3006.0000;4047.1220
3007.0000;4050.3560
3008.0000;4051.9740
3009.0000;4050.1460
3010.0000;4043.4560
3011.0000;4035.6150
3012.0000;4033.1630
3013.0000;4038.0150
3014.0000;4047.9900
3015.0000;4057.9180
3016.0000;4060.7280
3017.0000;4060.8760
3018.0000;4065.3520
3019.0000;4061.3220
3020.0000;4044.0670
3021.0000;4032.4030
3022.0000;4035.1460
3023.0000;4035.6970
3024.0000;4032.0550
3025.0000;4033.5700
3026.0000;4037.0800
3027.0000;4029.0720
3028.0000;4013.7500
3029.0000;4002.5800
3030.0000;3998.9130
3031.0000;3999.6770
3032.0000;4006.6630
3033.0000;4014.8460
3034.0000;4027.3870
3035.0000;4044.3990
3036.0000;4054.3180
3037.0000;4050.7780
3038.0000;4042.4090
3039.0000;4033.1310
3040.0000;4025.2780
3041.0000;4019.8430
3042.0000;4006.5540
3043.0000;3993.9500
3044.0000;3996.8340
3045.0000;4004.8520
3046.0000;3993.7460
3047.0000;3980.5540
3048.0000;3980.5670
3049.0000;3984.3900
3050.0000;3984.9900
3051.0000;3974.7440
3052.0000;3954.1920
3053.0000;3966.7810
3054.0000;4011.8560
3055.0000;4023.3630
3056.0000;3996.0710
3057.0000;3977.2940
3058.0000;3969.2010
3059.0000;3963.6630
3060.0000;3962.0440
3061.0000;3953.6290
3062.0000;3955.6830
3063.0000;3979.2940
3064.0000;3994.3280
3065.0000;3981.4880
3066.0000;3964.5860
3067.0000;3955.8230
3068.0000;3955.5700
3069.0000;3961.5930
3070.0000;3951.0350
3071.0000;3934.9060
3072.0000;3942.4150
3073.0000;3963.7000
3074.0000;3973.8530
3075.0000;3976.7080
3076.0000;3974.9020
3077.0000;3986.7300
3078.0000;4025.5610
3079.0000;4046.7280
3080.0000;4030.0970
3081.0000;4008.5380
3082.0000;3993.0050
3083.0000;3984.3650
3084.0000;3986.3650
3085.0000;3992.5130
3086.0000;3997.1220
3087.0000;3984.5520
3088.0000;3975.9990
3089.0000;3994.9830
3090.0000;4020.5320
3091.0000;4035.0610
3092.0000;4030.6550
3093.0000;4006.3580
3094.0000;3992.0210
3095.0000;3994.6640
3096.0000;3989.0600
3097.0000;3977.1440
3098.0000;3965.9390
3099.0000;3961.4010
3100.0000;3965.6700
3101.0000;3972.9870
3102.0000;3972.4560
3103.0000;3968.1910
3104.0000;3963.1320
3105.0000;3962.7220
3106.0000;3968.6790
3107.0000;3970.8020
3108.0000;3965.8400
3109.0000;3953.2810
3110.0000;3943.0790
3111.0000;3957.7680
3112.0000;3973.1560
3113.0000;3948.5440
3114.0000;3919.9990
3115.0000;3920.4910
3116.0000;3936.3860
3117.0000;3955.8960
3118.0000;3958.4250
3119.0000;3939.4610
3120.0000;3932.8050
3121.0000;3942.5970
3122.0000;3954.3330
3123.0000;3961.9320
3124.0000;3956.9400
3125.0000;3947.3180
3126.0000;3948.2250
3127.0000;3944.5130
3128.0000;3928.0940
3129.0000;3928.2650
3130.0000;3950.9860
3131.0000;3947.6940
3132.0000;3919.5330
3133.0000;3924.1120
3134.0000;3948.1370
3135.0000;3945.2670
3136.0000;3930.2070
3137.0000;3925.5780
3138.0000;3924.7120
3139.0000;3924.0210
3140.0000;3921.6700
3141.0000;3916.4260
3142.0000;3909.1130
3143.0000;3903.5050
3144.0000;3907.7220
3145.0000;3915.3000
3146.0000;3904.7390
3147.0000;3890.5120
3148.0000;3893.5830
3149.0000;3900.6830
3150.0000;3899.6880
3151.0000;3896.8870
3152.0000;3894.7690
3153.0000;3896.9240
3154.0000;3902.2200
3155.0000;3900.5250
3156.0000;3893.1740
3157.0000;3887.2730
3158.0000;3884.7740
3159.0000;3884.8030
3160.0000;3890.3340
3161.0000;3900.6450
3162.0000;3912.6690
3163.0000;3922.1800
3164.0000;3920.6800
3165.0000;3910.2460
3166.0000;3912.5530
3167.0000;3923.0770
3168.0000;3923.9140
3169.0000;3920.2230
3170.0000;3920.3630
3171.0000;3918.0740
3172.0000;3910.7420
3173.0000;3912.8820
3174.0000;3926.9870
3175.0000;3930.2900
3176.0000;3918.6810
3177.0000;3903.1240
3178.0000;3889.8640
3179.0000;3883.7970
3180.0000;3886.5790
3181.0000;3892.8180
3182.0000;3898.5170
3183.0000;3898.8430
3184.0000;3900.1540
3185.0000;3903.1120
3186.0000;3903.7590
3187.0000;3901.3320
3188.0000;3896.6300
3189.0000;3893.8090
3190.0000;3898.3490
3191.0000;3903.5310
3192.0000;3902.9700
3193.0000;3899.2630
3194.0000;3894.0660
3195.0000;3888.4900
3196.0000;3885.2920
3197.0000;3886.7970
3198.0000;3891.4690
3199.0000;3892.9140
3200.0000;3892.6430
3201.0000;3893.3970
3202.0000;3887.1230
3203.0000;3872.3630
3204.0000;3869.9840
3205.0000;3883.5030
3206.0000;3889.6250
3207.0000;3887.4140
3208.0000;3887.0310
3209.0000;3887.9280
3210.0000;3892.6490
3211.0000;3890.8170
3212.0000;3876.9360
3213.0000;3868.1960
3214.0000;3870.7630
3215.0000;3870.1450
3216.0000;3865.3540
3217.0000;3858.4580
3218.0000;3852.0070
3219.0000;3847.5690
3220.0000;3847.4350
3221.0000;3851.3690
3222.0000;3848.2650
3223.0000;3835.8570
3224.0000;3835.0260
3225.0000;3845.2100
3226.0000;3846.9270
3227.0000;3842.6490
3228.0000;3840.3100
3229.0000;3838.7230
3230.0000;3837.5580
3231.0000;3843.2990
3232.0000;3855.6140
3233.0000;3856.5580
3234.0000;3844.9170
3235.0000;3835.2030
3236.0000;3834.4220
3237.0000;3850.7420
3238.0000;3864.5420
3239.0000;3855.6510
3240.0000;3848.0930
3241.0000;3851.9380
3242.0000;3844.6510
3243.0000;3828.8090
3244.0000;3826.7110
3245.0000;3830.8150
3246.0000;3819.6690
3247.0000;3805.5220
3248.0000;3796.5230
3249.0000;3797.6580
3250.0000;3808.5510
3251.0000;3811.6710
3252.0000;3806.8310
3253.0000;3812.1760
3254.0000;3821.3080
3255.0000;3822.8610
3256.0000;3827.4120
3257.0000;3842.8160
3258.0000;3853.1670
3259.0000;3852.7590
3260.0000;3855.9550
3261.0000;3859.7680
3262.0000;3854.4050
3263.0000;3844.1620
3264.0000;3837.5850
3265.0000;3833.7550
3266.0000;3832.0750
3267.0000;3832.9630
3268.0000;3836.0900
3269.0000;3842.2370
3270.0000;3845.6590
3271.0000;3835.9890
3272.0000;3823.9330
3273.0000;3823.9200
3274.0000;3826.6140
3275.0000;3826.3960
3276.0000;3827.1170
3277.0000;3827.5110
3278.0000;3821.5860
3279.0000;3813.8000
3280.0000;3811.3820
3281.0000;3815.5230
3282.0000;3824.4680
3283.0000;3831.9980
3284.0000;3833.4740
3285.0000;3828.3220
3286.0000;3821.3870
3287.0000;3829.1540
3288.0000;3838.4600
3289.0000;3830.8060
3290.0000;3809.9030
3291.0000;3783.5230
3292.0000;3786.3330
3293.0000;3819.0880
3294.0000;3824.9970
3295.0000;3803.4490
3296.0000;3777.7000
3297.0000;3758.4790
3298.0000;3757.7260
3299.0000;3765.4940
3300.0000;3773.8340
3301.0000;3780.9750
3302.0000;3782.6350
3303.0000;3777.8960
3304.0000;3771.1830
3305.0000;3772.3270
3306.0000;3772.1280
3307.0000;3765.0420
3308.0000;3750.7000
3309.0000;3737.9130
3310.0000;3753.9670
3311.0000;3782.2000
3312.0000;3781.2410
3313.0000;3773.2330
3314.0000;3780.5650
3315.0000;3778.3650
3316.0000;3762.4450
3317.0000;3756.8700
3318.0000;3760.4480
3319.0000;3755.2380
3320.0000;3745.0100
3321.0000;3732.7560
3322.0000;3729.4280
3323.0000;3739.3090
3324.0000;3742.4030
3325.0000;3737.4700
3326.0000;3738.5680
3327.0000;3741.4160
3328.0000;3738.1520
3329.0000;3742.1260
3330.0000;3758.8610
3331.0000;3757.6860
3332.0000;3737.7890
3333.0000;3732.0520
3334.0000;3743.8130
3335.0000;3767.2420
3336.0000;3781.5890
3337.0000;3770.6780
3338.0000;3770.1250
3339.0000;3787.2720
3340.0000;3793.4370
3341.0000;3787.3430
3342.0000;3779.1980
3343.0000;3773.0460
3344.0000;3774.9840
3345.0000;3767.0310
3346.0000;3748.2330
3347.0000;3744.7110
3348.0000;3758.6150
3349.0000;3776.6230
3350.0000;3788.3740
3351.0000;3783.2350
3352.0000;3779.3180
3353.0000;3784.0000
3354.0000;3779.7390
3355.0000;3769.4320
3356.0000;3766.2770
3357.0000;3767.6230
3358.0000;3767.8440
3359.0000;3769.8810
3360.0000;3772.6330
3361.0000;3767.6230
3362.0000;3757.8980
3363.0000;3755.7290
3364.0000;3757.5940
3365.0000;3756.7600
3366.0000;3753.1890
3367.0000;3747.0510
3368.0000;3740.9590
3369.0000;3738.2030
3370.0000;3740.7790
3371.0000;3744.1500
3372.0000;3740.0990
3373.0000;3742.6900
3374.0000;3755.7850
3375.0000;3764.8620
3376.0000;3767.1790
3377.0000;3769.5410
3378.0000;3775.0330
3379.0000;3789.5220
3380.0000;3796.7740
3381.0000;3789.8290
3382.0000;3782.3160
3383.0000;3778.2620
3384.0000;3781.2190
3385.0000;3782.1760
3386.0000;3770.5250
3387.0000;3759.8310
3388.0000;3758.2170
3389.0000;3769.4910
3390.0000;3785.8310
3391.0000;3788.4020
3392.0000;3782.1570
3393.0000;3776.3510
3394.0000;3770.9300
3395.0000;3768.2930
3396.0000;3771.1430
3397.0000;3771.3690
3398.0000;3748.1770
3399.0000;3737.6850
3400.0000;3764.8240
3401.0000;3777.4360
3402.0000;3761.4220
3403.0000;3747.6620
3404.0000;3740.3920
3405.0000;3740.7430
3406.0000;3739.5380
3407.0000;3729.6020
3408.0000;3728.0260
3409.0000;3734.1500
3410.0000;3727.0340
3411.0000;3718.0540
3412.0000;3722.1850
3413.0000;3728.6640
3414.0000;3730.7060
3415.0000;3729.5720
3416.0000;3729.8610
3417.0000;3748.0310
3418.0000;3758.0780
3419.0000;3735.3660
3420.0000;3731.5160
3421.0000;3761.2290
3422.0000;3774.8140
3423.0000;3767.4640
3424.0000;3754.2300
3425.0000;3742.1070
3426.0000;3742.1170
3427.0000;3749.1250
3428.0000;3757.5180
3429.0000;3755.3590
3430.0000;3744.7890
3431.0000;3733.0900
3432.0000;3735.2920
3433.0000;3755.1750
3434.0000;3753.5020
3435.0000;3735.0000
3436.0000;3741.7120
3437.0000;3752.0020
3438.0000;3742.3820
3439.0000;3742.1260
3440.0000;3757.2110
3441.0000;3761.5620
3442.0000;3756.5190
3443.0000;3755.1000
3444.0000;3756.6030
3445.0000;3761.2830
3446.0000;3761.2950
3447.0000;3755.7700
3448.0000;3751.7880
3449.0000;3748.2530
3450.0000;3742.7090
3451.0000;3743.4770
3452.0000;3751.1070
3453.0000;3748.0320
3454.0000;3740.4000
3455.0000;3751.3000
3456.0000;3752.2270
3457.0000;3726.0190
3458.0000;3715.5160
3459.0000;3730.1750
3460.0000;3741.1840
3461.0000;3749.4670
3462.0000;3756.9260
3463.0000;3758.9130
3464.0000;3756.0480
3465.0000;3759.1560
3466.0000;3767.2000
3467.0000;3777.0460
3468.0000;3776.7280
3469.0000;3760.9570
3470.0000;3753.5250
3471.0000;3756.3400
3472.0000;3743.7040
3473.0000;3730.6960
3474.0000;3733.5970
3475.0000;3741.2910
3476.0000;3746.3600
3477.0000;3744.2710
3478.0000;3740.2770
3479.0000;3748.5330
3480.0000;3755.9120
3481.0000;3753.4060
3482.0000;3743.4100
3483.0000;3730.7690
3484.0000;3723.5800
3485.0000;3722.0370
3486.0000;3721.7060
3487.0000;3715.0520
3488.0000;3704.2370
3489.0000;3708.4550
3490.0000;3721.0570
3491.0000;3722.4500
3492.0000;3732.5280
3493.0000;3755.0490
3494.0000;3752.8500
3495.0000;3733.0000
3496.0000;3735.4590
3497.0000;3744.8150
3498.0000;3748.6360
3499.0000;3737.5500
3500.0000;3719.6380
3501.0000;3728.1250
3502.0000;3744.4810
3503.0000;3742.5810
3504.0000;3739.0950
3505.0000;3740.5230
3506.0000;3749.8330
3507.0000;3758.0390
3508.0000;3753.1460
3509.0000;3738.0400
3510.0000;3720.3600
3511.0000;3715.6800
3512.0000;3722.5160
3513.0000;3720.4490
3514.0000;3717.9600
3515.0000;3719.1120
3516.0000;3722.7210
3517.0000;3730.6680
3518.0000;3750.9470
3519.0000;3762.9910
3520.0000;3750.4480
3521.0000;3744.2880
3522.0000;3752.8520
3523.0000;3763.9190
3524.0000;3770.5800
3525.0000;3766.2460
3526.0000;3757.3280
3527.0000;3747.6800
3528.0000;3732.0220
3529.0000;3719.2650
3530.0000;3717.2410
3531.0000;3719.8750
3532.0000;3720.9620
3533.0000;3715.9810
3534.0000;3712.0470
3535.0000;3723.3410
3536.0000;3736.5020
3537.0000;3741.0040
3538.0000;3742.8130
3539.0000;3740.9000
3540.0000;3736.0730
3541.0000;3734.1140
3542.0000;3738.3820
3543.0000;3719.8510
3544.0000;3687.0420
3545.0000;3677.2600
3546.0000;3685.5000
3547.0000;3697.2040
3548.0000;3699.4140
3549.0000;3692.7010
3550.0000;3703.4850
3551.0000;3714.3390
3552.0000;3707.6970
3553.0000;3705.8090
3554.0000;3712.0720
3555.0000;3709.2770
3556.0000;3703.9610
3557.0000;3705.6100
3558.0000;3710.8330
3559.0000;3714.4050
3560.0000;3700.6800
3561.0000;3686.9060
3562.0000;3696.9060
3563.0000;3704.6650
3564.0000;3699.6470
3565.0000;3692.9900
3566.0000;3691.2600
3567.0000;3702.0730
3568.0000;3704.4860
3569.0000;3693.5780
3570.0000;3700.6970
3571.0000;3715.8700
3572.0000;3717.3590
3573.0000;3712.7290
3574.0000;3707.4080
3575.0000;3707.6140
3576.0000;3710.9710
3577.0000;3711.1060
3578.0000;3700.9220
3579.0000;3681.7850
3580.0000;3671.6390
3581.0000;3673.2150
3582.0000;3677.1080
3583.0000;3683.8150
3584.0000;3687.7980
3585.0000;3675.5830
3586.0000;3659.6270
3587.0000;3663.8750
3588.0000;3681.6940
3589.0000;3701.7550
3590.0000;3708.3450
3591.0000;3707.7040
3592.0000;3724.6880
3593.0000;3725.4800
3594.0000;3702.2880
3595.0000;3698.6950
3596.0000;3708.4870
3597.0000;3704.9360
3598.0000;3712.6590
3599.0000;3734.0520
3600.0000;3735.8290
3601.0000;3726.5860
3602.0000;3733.0500
3603.0000;3737.0310
3604.0000;3732.9030
3605.0000;3729.5530
3606.0000;3729.2110
3607.0000;3732.9160
3608.0000;3739.4190
3609.0000;3745.9240
3610.0000;3750.9830
3611.0000;3747.7350
3612.0000;3732.3230
3613.0000;3736.2170
3614.0000;3760.3750
3615.0000;3760.5010
3616.0000;3745.6530
3617.0000;3734.8690
3618.0000;3723.8660
3619.0000;3715.5240
3620.0000;3704.6130
3621.0000;3705.5650
3622.0000;3724.7490
3623.0000;3727.9240
3624.0000;3713.1200
3625.0000;3712.8000
3626.0000;3716.8680
3627.0000;3717.3110
3628.0000;3727.5930
3629.0000;3739.6000
3630.0000;3731.6560
3631.0000;3718.2600
3632.0000;3712.2420
3633.0000;3698.5020
3634.0000;3692.1130
3635.0000;3716.8300
3636.0000;3743.2070
3637.0000;3748.8750
3638.0000;3747.8340
3639.0000;3741.2210
3640.0000;3736.6190
3641.0000;3738.2070
3642.0000;3745.7340
3643.0000;3744.2150
3644.0000;3743.3930
3645.0000;3758.0030
3646.0000;3754.3330
3647.0000;3731.5020
3648.0000;3729.1300
3649.0000;3740.4410
3650.0000;3751.3040
3651.0000;3748.9510
3652.0000;3736.2500
3653.0000;3739.0500
3654.0000;3742.0280
3655.0000;3734.5910
3656.0000;3737.7810
3657.0000;3744.4190
3658.0000;3730.6090
3659.0000;3721.6230
3660.0000;3730.1620
3661.0000;3735.3410
3662.0000;3736.3730
3663.0000;3737.6020
3664.0000;3725.7560
3665.0000;3702.9640
3666.0000;3687.6300
3667.0000;3683.1090
3668.0000;3684.7460
3669.0000;3694.6020
3670.0000;3704.6170
3671.0000;3696.4750
3672.0000;3688.4110
3673.0000;3695.3510
3674.0000;3695.2720
3675.0000;3692.7000
3676.0000;3704.0980
3677.0000;3714.0410
3678.0000;3715.5840
3679.0000;3728.7110
3680.0000;3740.7490
3681.0000;3735.7340
3682.0000;3727.0740
3683.0000;3723.7920
3684.0000;3734.1040
3685.0000;3741.3930
3686.0000;3730.2970
3687.0000;3723.7660
3688.0000;3723.9210
3689.0000;3720.5530
3690.0000;3711.0550
3691.0000;3698.6030
3692.0000;3708.2140
3693.0000;3721.5620
3694.0000;3704.8300
3695.0000;3704.1320
3696.0000;3722.9940
3697.0000;3709.3420
3698.0000;3687.5180
3699.0000;3685.5530
3700.0000;3697.3780
3701.0000;3716.4020
3702.0000;3727.9520
3703.0000;3729.8520
3704.0000;3725.7190
3705.0000;3740.2400
3706.0000;3756.9510
3707.0000;3750.5870
3708.0000;3753.7830
3709.0000;3767.0540
3710.0000;3760.4410
3711.0000;3745.8360
3712.0000;3737.4350
3713.0000;3724.9760
3714.0000;3720.4960
3715.0000;3739.0000
3716.0000;3753.0790
3717.0000;3748.5540
3718.0000;3748.7950
3719.0000;3743.7120
3720.0000;3726.3530
3721.0000;3721.4980
3722.0000;3729.1160
3723.0000;3724.8050
3724.0000;3716.6780
3725.0000;3710.6980
3726.0000;3712.6130
3727.0000;3713.5690
3728.0000;3699.1120
3729.0000;3695.7780
3730.0000;3710.8750
3731.0000;3731.0330
3732.0000;3751.0610
3733.0000;3761.9220
3734.0000;3757.3390
3735.0000;3741.1050
3736.0000;3729.1790
3737.0000;3725.6150
3738.0000;3731.2660
3739.0000;3733.8360
3740.0000;3732.5380
3741.0000;3727.4350
3742.0000;3725.4710
3743.0000;3724.7620
3744.0000;3716.9250
3745.0000;3717.1320
3746.0000;3726.3360
3747.0000;3721.5510
3748.0000;3711.4410
3749.0000;3708.4690
3750.0000;3716.1620
3751.0000;3732.5770
3752.0000;3749.1080
3753.0000;3750.4610
3754.0000;3736.9680
3755.0000;3746.6810
3756.0000;3752.5250
3757.0000;3729.3650
3758.0000;3719.7410
3759.0000;3726.5540
3760.0000;3729.0160
3761.0000;3726.6950
3762.0000;3721.6590
3763.0000;3728.6020
3764.0000;3742.8230
3765.0000;3755.1810
3766.0000;3769.1830
3767.0000;3780.1290
3768.0000;3787.2500
3769.0000;3789.0920
3770.0000;3788.8880
3771.0000;3797.6640
3772.0000;3810.1620
3773.0000;3818.7390
3774.0000;3814.5740
3775.0000;3800.3410
3776.0000;3788.0780
3777.0000;3783.9280
3778.0000;3789.3330
3779.0000;3791.4000
3780.0000;3796.8720
3781.0000;3807.1330
3782.0000;3803.2850
3783.0000;3795.1930
3784.0000;3805.1600
3785.0000;3801.4280
3786.0000;3783.9780
3787.0000;3784.1290
3788.0000;3788.0280
3789.0000;3786.1990
3790.0000;3786.4530
3791.0000;3794.4770
3792.0000;3813.0840
3793.0000;3823.8860
3794.0000;3819.2760
3795.0000;3804.3650
3796.0000;3802.3780
3797.0000;3818.6680
3798.0000;3811.6130
3799.0000;3796.3890
3800.0000;3792.5210
3801.0000;3779.8990
3802.0000;3761.4670
3803.0000;3743.2890
3804.0000;3748.8780
3805.0000;3775.7830
3806.0000;3788.3610
3807.0000;3791.6210
3808.0000;3789.6360
3809.0000;3775.9820
3810.0000;3764.9570
3811.0000;3773.5470
3812.0000;3780.5560
3813.0000;3780.9500
3814.0000;3780.5270
3815.0000;3765.7390
3816.0000;3746.0720
3817.0000;3770.2970
3818.0000;3787.5350
3819.0000;3758.3960
3820.0000;3762.5630
3821.0000;3778.2350
3822.0000;3757.2290
3823.0000;3748.4950
3824.0000;3758.6850
3825.0000;3761.0770
3826.0000;3756.9300
3827.0000;3747.9560
3828.0000;3743.4570
3829.0000;3737.8970
3830.0000;3726.8430
3831.0000;3723.2700
3832.0000;3726.2020
3833.0000;3726.9020
3834.0000;3731.1300
3835.0000;3733.6500
3836.0000;3721.1290
3837.0000;3715.7020
3838.0000;3724.3640
3839.0000;3718.8060
3840.0000;3713.3510
3841.0000;3721.1290
3842.0000;3739.2200
3843.0000;3752.4430
3844.0000;3744.5240
3845.0000;3733.8210
3846.0000;3727.4060
3847.0000;3723.1620
3848.0000;3723.8090
3849.0000;3729.3270
3850.0000;3737.0590
3851.0000;3749.8030
3852.0000;3764.9240
3853.0000;3768.0820
3854.0000;3768.0780
3855.0000;3780.2050
3856.0000;3789.5410
3857.0000;3790.3690
3858.0000;3784.3230
3859.0000;3775.3350
3860.0000;3767.3000
3861.0000;3757.6470
3862.0000;3751.9760
3863.0000;3753.2840
3864.0000;3761.7790
3865.0000;3771.7320
3866.0000;3774.5310
3867.0000;3760.1880
3868.0000;3748.3370
3869.0000;3765.9190
3870.0000;3762.5150
3871.0000;3744.8660
3872.0000;3754.5800
3873.0000;3768.1700
3874.0000;3774.0630
3875.0000;3775.6280
3876.0000;3767.9560
3877.0000;3753.3820
3878.0000;3735.5490
3879.0000;3725.2500
3880.0000;3727.9810
3881.0000;3735.9960
3882.0000;3740.8480
3883.0000;3733.3710
3884.0000;3723.1760
3885.0000;3727.0910
3886.0000;3765.1410
3887.0000;3763.5450
3888.0000;3724.1720
3889.0000;3739.3530
3890.0000;3755.9160
3891.0000;3750.8320
3892.0000;3760.9690
3893.0000;3765.1120
3894.0000;3753.3960
3895.0000;3756.9740
3896.0000;3766.2260
3897.0000;3765.7500
3898.0000;3749.2600
3899.0000;3729.9570
3900.0000;3728.5050
3901.0000;3721.8540
3902.0000;3714.3180
3903.0000;3723.5330
3904.0000;3709.6820
3905.0000;3681.1660
3906.0000;3700.8350
3907.0000;3722.2680
3908.0000;3719.6090
3909.0000;3718.3680
3910.0000;3715.1890
3911.0000;3713.6730
3912.0000;3726.6420
3913.0000;3742.2900
3914.0000;3746.6720
3915.0000;3757.4400
3916.0000;3765.6660
3917.0000;3761.6750
3918.0000;3761.5080
3919.0000;3766.5590
3920.0000;3771.5310
3921.0000;3770.6830
3922.0000;3769.6500
3923.0000;3784.9210
3924.0000;3789.4460
3925.0000;3779.8800
3926.0000;3784.9220
3927.0000;3781.5100
3928.0000;3767.5120
3929.0000;3770.1020
3930.0000;3788.8510
3931.0000;3810.9280
3932.0000;3807.7140
3933.0000;3792.1550
3934.0000;3783.4470
3935.0000;3765.1500
3936.0000;3763.7820
3937.0000;3795.2400
3938.0000;3800.7330
3939.0000;3783.8760
3940.0000;3770.7460
3941.0000;3752.5760
3942.0000;3748.3170
3943.0000;3775.3140
3944.0000;3781.3470
3945.0000;3765.6780
3946.0000;3763.1350
3947.0000;3751.7970
3948.0000;3737.5390
3949.0000;3743.1010
3950.0000;3748.5620
3951.0000;3746.8540
3952.0000;3748.8610
3953.0000;3738.8990
3954.0000;3721.2270
3955.0000;3726.7310
3956.0000;3734.3450
3957.0000;3730.4620
3958.0000;3729.3420
3959.0000;3723.0980
3960.0000;3712.2880
3961.0000;3717.5790
3962.0000;3720.5980
3963.0000;3706.0790
3964.0000;3687.1660
3965.0000;3676.8330
3966.0000;3682.8180
3967.0000;3689.7890
3968.0000;3693.9750
3969.0000;3692.0780
3970.0000;3683.2620
3971.0000;3675.3970
3972.0000;3676.9540
3973.0000;3669.5710
3974.0000;3660.2620
3975.0000;3661.2850
3976.0000;3652.6370
3977.0000;3648.8850
3978.0000;3672.1150
3979.0000;3682.2650
3980.0000;3677.9680
3981.0000;3681.1530
3982.0000;3683.1530
3983.0000;3681.3840
3984.0000;3675.9350
3985.0000;3666.9060
3986.0000;3655.9260
3987.0000;3643.3190
3988.0000;3636.1950
3989.0000;3639.8850
3990.0000;3653.6840
3991.0000;3656.1430
3992.0000;3647.5730
3993.0000;3652.7940
3994.0000;3668.0030
3995.0000;3684.5050
3996.0000;3690.0380
3997.0000;3679.8090
3998.0000;3664.3670
3999.0000;3670.2670
4000.0000;3677.4630
4001.0000;3678.6010
4002.0000;3681.7830
4003.0000;3696.6050
4004.0000;3714.6010
4005.0000;3711.6540
4006.0000;3689.0780
4007.0000;3664.3440
4008.0000;3665.8030
4009.0000;3685.8940
4010.0000;3704.2070
4011.0000;3691.4300
4012.0000;3677.1400
4013.0000;3678.4160
4014.0000;3682.9350
4015.0000;3691.2090
4016.0000;3701.6740
4017.0000;3721.1210
4018.0000;3720.8640
4019.0000;3697.8690
4020.0000;3684.7740
4021.0000;3690.5730
4022.0000;3704.1840
4023.0000;3685.9650
4024.0000;3665.7080
4025.0000;3660.4870
4026.0000;3663.0760
4027.0000;3663.4590
4028.0000;3656.1280
4029.0000;3644.8810
4030.0000;3648.6960
4031.0000;3662.5240
4032.0000;3653.7600
4033.0000;3654.9350
4034.0000;3666.5370
4035.0000;3661.3130
4036.0000;3636.7960
4037.0000;3614.5000
4038.0000;3631.9710
4039.0000;3647.0860
4040.0000;3645.2290
4041.0000;3638.7410
4042.0000;3627.6630
4043.0000;3621.9620
4044.0000;3632.5600
4045.0000;3632.6590
4046.0000;3628.2750
4047.0000;3644.4100
4048.0000;3649.4730
4049.0000;3645.0780
4050.0000;3649.1280
4051.0000;3643.3630
4052.0000;3630.0430
4053.0000;3619.5090
4054.0000;3606.9530
4055.0000;3606.5290
4056.0000;3626.8740
4057.0000;3631.2740
4058.0000;3616.9520
4059.0000;3598.2500
4060.0000;3594.2820
4061.0000;3608.8990
4062.0000;3632.0640
4063.0000;3647.8840
4064.0000;3650.7170
4065.0000;3645.6150
4066.0000;3654.8380
4067.0000;3662.6000
4068.0000;3656.6720
4069.0000;3643.9400
4070.0000;3651.0610
4071.0000;3679.3520
4072.0000;3672.4660
4073.0000;3662.1020
4074.0000;3659.4210
4075.0000;3629.2220
4076.0000;3611.8940
4077.0000;3616.0010
4078.0000;3603.5960
4079.0000;3601.0320
4080.0000;3610.1120
4081.0000;3612.8540
4082.0000;3598.0170
4083.0000;3574.1230
4084.0000;3563.0030
4085.0000;3539.0820
4086.0000;3520.8330
4087.0000;3531.4950
4088.0000;3511.1790
4089.0000;3494.3380
4090.0000;3521.8590
4091.0000;3516.8510
4092.0000;3497.8590
4093.0000;3494.2470
4094.0000;3490.5490
4095.0000;3500.2400
4096.0000;3522.6880
4097.0000;3531.1290
4098.0000;3532.4600
4099.0000;3531.9540
4100.0000;3525.1230
4101.0000;3519.9340
4102.0000;3519.8550
4103.0000;3518.5310
4104.0000;3523.1880
4105.0000;3523.0460
4106.0000;3498.1090
4107.0000;3466.7200
4108.0000;3448.2700
4109.0000;3452.4150
4110.0000;3433.0280
4111.0000;3395.2670
4112.0000;3362.8240
4113.0000;3341.0330
4114.0000;3328.0840
4115.0000;3311.8150
4116.0000;3274.8600
4117.0000;3239.3540
4118.0000;3217.3000
4119.0000;3186.0570
4120.0000;3151.1150
4121.0000;3112.7770
4122.0000;3066.6620
4123.0000;3023.1670
4124.0000;2987.9200
4125.0000;2951.7020
4126.0000;2925.1370
4127.0000;2900.3590
4128.0000;2859.3130
4129.0000;2813.4630
4130.0000;2764.3950
4131.0000;2711.3880
4132.0000;2653.4180
4133.0000;2615.3710
4134.0000;2594.5820
4135.0000;2534.4140
4136.0000;2474.5170
4137.0000;2435.7370
4138.0000;2401.4330
4139.0000;2355.7410
4140.0000;2305.1720
4141.0000;2265.8460
4142.0000;2209.9090
4143.0000;2163.1210
4144.0000;2146.1000
4145.0000;2089.1130
4146.0000;2030.4220
4147.0000;2003.6210
4148.0000;1966.0940
4149.0000;1936.0340
4150.0000;1919.5860
4151.0000;1906.9530
4152.0000;1884.9580
4153.0000;1860.0480
4154.0000;1852.1450
4155.0000;1834.9110
4156.0000;1814.3270
4157.0000;1803.8650
4158.0000;1784.1290
4159.0000;1745.0610
4160.0000;1694.2000
4161.0000;1676.9720
4162.0000;1676.6260
4163.0000;1668.2040
4164.0000;1635.1750
4165.0000;1620.3020
4166.0000;1621.5470
4167.0000;1598.3600
4168.0000;1591.7070
4169.0000;1597.3770
4170.0000;1595.6030
4171.0000;1588.4840
4172.0000;1577.7700
4173.0000;1570.1140
4174.0000;1577.0320
4175.0000;1578.9730
4176.0000;1573.8190
4177.0000;1585.0920
4178.0000;1579.8220
4179.0000;1564.0260
4180.0000;1562.6190
4181.0000;1560.4110
4182.0000;1548.0520
4183.0000;1527.0590
4184.0000;1528.4910
4185.0000;1533.9380
4186.0000;1532.3150
4187.0000;1537.1480
4188.0000;1528.7610
4189.0000;1518.7520
4190.0000;1532.5260
4191.0000;1541.7650
4192.0000;1546.9150
4193.0000;1553.6100
4194.0000;1557.1930
4195.0000;1555.1130
4196.0000;1548.8300
4197.0000;1542.9070
4198.0000;1533.9420
4199.0000;1523.8000
4200.0000;1515.5800
4201.0000;1499.4110
4202.0000;1487.9010
4203.0000;1493.5520
4204.0000;1517.5000
4205.0000;1517.8060
4206.0000;1494.5870
4207.0000;1521.6700
4208.0000;1530.0670
4209.0000;1520.2370
4210.0000;1529.7210
4211.0000;1524.1590
4212.0000;1519.9760
4213.0000;1529.9260
4214.0000;1521.8720
4215.0000;1518.0160
4216.0000;1520.3590
4217.0000;1504.6150
4218.0000;1495.1140
4219.0000;1494.2840
4220.0000;1495.0900
4221.0000;1513.4170
4222.0000;1514.6750
4223.0000;1489.4600
4224.0000;1496.2740
4225.0000;1507.1590
4226.0000;1510.8010
4227.0000;1511.1990
4228.0000;1496.3710
4229.0000;1480.4980
4230.0000;1478.5480
4231.0000;1474.3640
4232.0000;1465.7790
4233.0000;1461.8510
4234.0000;1484.7960
4235.0000;1500.7680
4236.0000;1349.0560
4237.0000;940.9484
4238.0000;504.4092
