Raman Shift ; Dark Subtracted #1
-2.0000;6937.8410
-1.0000;6418.9790
0.0000;5682.4620
1.0000;4770.2780
2.0000;3739.2220
3.0000;2719.2230
4.0000;1876.1070
5.0000;1168.6310
6.0000;694.5632
7.0000;533.1504
8.0000;421.8048
9.0000;359.2924
10.0000;400.7617
11.0000;384.8204
12.0000;249.4876
13.0000;110.0316
14.0000;11.2636
15.0000;-14.4224
16.0000;12.8250
17.0000;37.4464
18.0000;33.6653
19.0000;28.7214
20.0000;24.0716
21.0000;20.3263
22.0000;18.4638
23.0000;18.5144
24.0000;21.1146
25.0000;24.8119
26.0000;26.8885
27.0000;24.5075
28.0000;20.0811
29.0000;16.5343
30.0000;16.4602
31.0000;18.1506
32.0000;19.5082
33.0000;18.8837
34.0000;17.1142
35.0000;14.5846
36.0000;10.2434
37.0000;6.5258
38.0000;5.4641
39.0000;10.0850
40.0000;18.1664
41.0000;24.9370
42.0000;25.6580
43.0000;22.1443
44.0000;18.4973
45.0000;19.4164
46.0000;22.4951
47.0000;25.2905
48.0000;25.1389
49.0000;23.1875
50.0000;21.5832
51.0000;23.2750
52.0000;26.5997
53.0000;28.7439
54.0000;25.6708
55.0000;19.5497
56.0000;15.5200
57.0000;18.6754
58.0000;27.9543
59.0000;38.5616
60.0000;45.0448
61.0000;47.9759
62.0000;51.6361
63.0000;62.1165
64.0000;75.8815
65.0000;89.1720
66.0000;97.5193
67.0000;100.8577
68.0000;107.5859
69.0000;127.8743
70.0000;158.2877
71.0000;191.8835
72.0000;225.6519
73.0000;253.8280
74.0000;277.9853
75.0000;305.8174
76.0000;329.1917
77.0000;351.7232
78.0000;384.4334
79.0000;420.5402
80.0000;454.7233
81.0000;488.7231
82.0000;515.6159
83.0000;540.8565
84.0000;575.8333
85.0000;614.9607
86.0000;655.8743
87.0000;705.6792
88.0000;756.4883
89.0000;806.3237
90.0000;860.7935
91.0000;911.1488
92.0000;955.7264
93.0000;1005.9850
94.0000;1052.8290
95.0000;1099.1820
96.0000;1160.5930
97.0000;1229.5190
98.0000;1295.0310
99.0000;1363.9230
100.0000;1425.7380
101.0000;1473.0360
102.0000;1524.0690
103.0000;1568.9370
104.0000;1606.3170
105.0000;1651.2240
106.0000;1697.7690
107.0000;1741.8150
108.0000;1797.6140
109.0000;1854.7250
110.0000;1906.6310
111.0000;1961.7760
112.0000;2012.6360
113.0000;2051.7240
114.0000;2094.2640
115.0000;2133.2500
116.0000;2165.8410
117.0000;2204.6330
118.0000;2245.5320
119.0000;2280.7090
120.0000;2313.5360
121.0000;2338.7600
122.0000;2358.2310
123.0000;2385.0450
124.0000;2417.0040
125.0000;2448.3290
126.0000;2481.5500
127.0000;2512.6570
128.0000;2539.1280
129.0000;2566.9500
130.0000;2592.4630
131.0000;2612.1020
132.0000;2631.1180
133.0000;2646.4880
134.0000;2658.1820
135.0000;2674.5340
136.0000;2694.2390
137.0000;2711.7420
138.0000;2726.0490
139.0000;2734.5540
140.0000;2740.0840
141.0000;2752.1090
142.0000;2770.7260
143.0000;2788.0990
144.0000;2803.2750
145.0000;2812.0510
146.0000;2816.7750
147.0000;2823.7550
148.0000;2831.5400
149.0000;2839.0380
150.0000;2848.6010
151.0000;2859.4610
152.0000;2868.4290
153.0000;2876.1300
154.0000;2880.7910
155.0000;2883.1610
156.0000;2888.0230
157.0000;2894.2790
158.0000;2898.8300
159.0000;2899.5740
160.0000;2895.5510
161.0000;2891.6060
162.0000;2893.4230
163.0000;2901.4570
164.0000;2911.8990
165.0000;2920.4160
166.0000;2926.1420
167.0000;2930.5670
168.0000;2937.7470
169.0000;2945.6760
170.0000;2951.8680
171.0000;2954.5120
172.0000;2952.6600
173.0000;2950.9270
174.0000;2956.1660
175.0000;2967.5580
176.0000;2978.3500
177.0000;2983.4810
178.0000;2981.7410
179.0000;2979.0230
180.0000;2983.3460
181.0000;2993.1500
182.0000;3001.8920
183.0000;3003.8320
184.0000;2998.9370
185.0000;2995.4580
186.0000;3002.0080
187.0000;3016.6370
188.0000;3033.7700
189.0000;3049.2480
190.0000;3059.7710
191.0000;3065.4220
192.0000;3067.6690
193.0000;3063.8960
194.0000;3057.7740
195.0000;3055.3570
196.0000;3054.8190
197.0000;3054.0800
198.0000;3049.7910
199.0000;3044.4200
200.0000;3042.0710
201.0000;3046.7680
202.0000;3056.9340
203.0000;3066.2510
204.0000;3068.8080
205.0000;3065.9110
206.0000;3061.9480
207.0000;3060.8400
208.0000;3061.6630
209.0000;3064.9210
210.0000;3071.2180
211.0000;3079.3760
212.0000;3087.8700
213.0000;3094.9830
214.0000;3099.9860
215.0000;3105.2000
216.0000;3113.8610
217.0000;3122.0280
218.0000;3129.0380
219.0000;3135.0040
220.0000;3139.0460
221.0000;3144.7930
222.0000;3157.1530
223.0000;3169.3700
224.0000;3176.2760
225.0000;3172.5330
226.0000;3163.8200
227.0000;3159.8200
228.0000;3168.1240
229.0000;3183.2120
230.0000;3199.8710
231.0000;3214.7860
232.0000;3227.3260
233.0000;3237.4720
234.0000;3244.7260
235.0000;3247.3890
236.0000;3250.1410
237.0000;3255.4150
238.0000;3258.4800
239.0000;3258.2290
240.0000;3253.1510
241.0000;3247.1950
242.0000;3245.9780
243.0000;3252.0640
244.0000;3260.8150
245.0000;3267.5290
246.0000;3270.2600
247.0000;3269.6430
248.0000;3265.9300
249.0000;3258.7150
250.0000;3253.8070
251.0000;3257.6500
252.0000;3272.2290
253.0000;3289.6940
254.0000;3302.2420
255.0000;3307.1630
256.0000;3308.4250
257.0000;3312.5720
258.0000;3317.6370
259.0000;3320.8800
260.0000;3322.4280
261.0000;3321.1050
262.0000;3317.5570
263.0000;3312.0010
264.0000;3305.6030
265.0000;3302.3750
266.0000;3306.0150
267.0000;3316.2510
268.0000;3327.9770
269.0000;3335.9570
270.0000;3340.4930
271.0000;3344.6880
272.0000;3351.7340
273.0000;3359.5820
274.0000;3369.3370
275.0000;3384.9330
276.0000;3400.7060
277.0000;3413.1000
278.0000;3421.9180
279.0000;3423.4950
280.0000;3421.9380
281.0000;3420.5930
282.0000;3417.8490
283.0000;3417.1240
284.0000;3420.4180
285.0000;3426.9570
286.0000;3435.8370
287.0000;3446.9510
288.0000;3457.7820
289.0000;3466.7870
290.0000;3472.5570
291.0000;3474.6790
292.0000;3477.5830
293.0000;3482.6340
294.0000;3486.3060
295.0000;3487.9420
296.0000;3486.5910
297.0000;3483.8260
298.0000;3482.3060
299.0000;3482.7070
300.0000;3485.1350
301.0000;3490.5960
302.0000;3498.6120
303.0000;3506.0480
304.0000;3509.6030
305.0000;3508.1680
306.0000;3506.1410
307.0000;3509.0600
308.0000;3516.4970
309.0000;3524.8330
310.0000;3532.7550
311.0000;3538.7320
312.0000;3542.4930
313.0000;3545.1110
314.0000;3544.8880
315.0000;3543.6130
316.0000;3543.2630
317.0000;3543.4060
318.0000;3545.0350
319.0000;3548.7170
320.0000;3554.2930
321.0000;3561.5630
322.0000;3570.8630
323.0000;3580.3440
324.0000;3589.8070
325.0000;3599.1300
326.0000;3605.7600
327.0000;3610.7110
328.0000;3613.8780
329.0000;3615.3880
330.0000;3619.9450
331.0000;3630.0040
332.0000;3641.1900
333.0000;3650.5380
334.0000;3656.5310
335.0000;3658.7550
336.0000;3659.0600
337.0000;3656.8170
338.0000;3655.1850
339.0000;3659.9650
340.0000;3672.3600
341.0000;3685.1220
342.0000;3693.1450
343.0000;3694.3840
344.0000;3692.6950
345.0000;3693.5490
346.0000;3695.7750
347.0000;3698.4700
348.0000;3701.9310
349.0000;3705.8130
350.0000;3710.0290
351.0000;3715.7380
352.0000;3721.4390
353.0000;3726.0670
354.0000;3730.1900
355.0000;3732.3440
356.0000;3733.6640
357.0000;3735.1330
358.0000;3736.4130
359.0000;3739.6050
360.0000;3747.4440
361.0000;3755.6260
362.0000;3761.2000
363.0000;3760.7650
364.0000;3758.2380
365.0000;3760.4090
366.0000;3770.8120
367.0000;3781.8040
368.0000;3785.4110
369.0000;3778.3940
370.0000;3769.0280
371.0000;3768.8320
372.0000;3780.0080
373.0000;3792.2730
374.0000;3796.1510
375.0000;3790.5030
376.0000;3783.9710
377.0000;3786.1820
378.0000;3795.8460
379.0000;3806.5200
380.0000;3813.1670
381.0000;3815.9720
382.0000;3818.9650
383.0000;3827.3940
384.0000;3836.9920
385.0000;3846.0000
386.0000;3853.2740
387.0000;3857.3640
388.0000;3861.5650
389.0000;3868.6590
390.0000;3874.9430
391.0000;3879.4530
392.0000;3881.1080
393.0000;3881.5000
394.0000;3885.3270
395.0000;3894.1870
396.0000;3904.9690
397.0000;3915.4230
398.0000;3924.4520
399.0000;3930.6090
400.0000;3934.9260
401.0000;3936.1910
402.0000;3936.7840
403.0000;3941.7480
404.0000;3950.1820
405.0000;3959.2580
406.0000;3969.0210
407.0000;3976.9060
408.0000;3983.0680
409.0000;3986.8850
410.0000;3988.3340
411.0000;3993.1540
412.0000;4009.3180
413.0000;4029.4840
414.0000;4045.5590
415.0000;4052.8540
416.0000;4051.1350
417.0000;4046.4800
418.0000;4041.6190
419.0000;4037.1550
420.0000;4039.2240
421.0000;4051.3120
422.0000;4065.2760
423.0000;4070.7270
424.0000;4063.6640
425.0000;4052.8150
426.0000;4048.9990
427.0000;4053.9190
428.0000;4061.9320
429.0000;4069.6360
430.0000;4075.7600
431.0000;4078.7050
432.0000;4076.7040
433.0000;4069.9970
434.0000;4064.5130
435.0000;4067.1270
436.0000;4074.3580
437.0000;4079.8110
438.0000;4076.0450
439.0000;4069.4400
440.0000;4067.1110
441.0000;4075.4330
442.0000;4088.4270
443.0000;4098.9620
444.0000;4103.2840
445.0000;4104.5680
446.0000;4108.4710
447.0000;4116.0000
448.0000;4123.2580
449.0000;4129.4170
450.0000;4132.8390
451.0000;4135.5190
452.0000;4141.0430
453.0000;4148.1990
454.0000;4155.8250
455.0000;4166.2660
456.0000;4176.0510
457.0000;4182.3860
458.0000;4182.7610
459.0000;4178.3620
460.0000;4176.9530
461.0000;4186.9690
462.0000;4201.1840
463.0000;4212.3820
464.0000;4214.9180
465.0000;4212.8430
466.0000;4213.5410
467.0000;4219.9040
468.0000;4228.0210
469.0000;4236.0610
470.0000;4243.1250
471.0000;4249.5270
472.0000;4257.9450
473.0000;4266.7580
474.0000;4273.9330
475.0000;4279.8680
476.0000;4282.6930
477.0000;4284.4640
478.0000;4289.2120
479.0000;4294.1130
480.0000;4298.1000
481.0000;4299.6730
482.0000;4300.3090
483.0000;4304.4110
484.0000;4315.9470
485.0000;4329.4270
486.0000;4340.7120
487.0000;4347.0960
488.0000;4348.5030
489.0000;4348.6770
490.0000;4347.5580
491.0000;4344.4220
492.0000;4339.7300
493.0000;4334.3680
494.0000;4333.2100
495.0000;4341.0840
496.0000;4357.2520
497.0000;4374.6390
498.0000;4386.4390
499.0000;4392.8510
500.0000;4399.4000
501.0000;4417.9100
502.0000;4434.1040
503.0000;4438.8770
504.0000;4423.0280
505.0000;4397.8790
506.0000;4382.7130
507.0000;4388.8290
508.0000;4404.0620
509.0000;4411.8000
510.0000;4408.5090
511.0000;4403.1500
512.0000;4402.4810
513.0000;4407.1260
514.0000;4415.9460
515.0000;4429.8440
516.0000;4446.1970
517.0000;4459.7900
518.0000;4466.4080
519.0000;4465.1870
520.0000;4462.5840
521.0000;4464.4460
522.0000;4467.2600
523.0000;4471.4120
524.0000;4477.1860
525.0000;4483.3550
526.0000;4489.8670
527.0000;4495.8120
528.0000;4501.4530
529.0000;4509.6310
530.0000;4518.7700
531.0000;4526.4130
532.0000;4531.7590
533.0000;4533.4220
534.0000;4534.9470
535.0000;4540.4960
536.0000;4548.3270
537.0000;4558.3000
538.0000;4572.0160
539.0000;4585.5220
540.0000;4598.9650
541.0000;4613.2130
542.0000;4622.9420
543.0000;4627.3290
544.0000;4624.4330
545.0000;4619.4270
546.0000;4623.2060
547.0000;4637.0300
548.0000;4651.8640
549.0000;4659.4900
550.0000;4658.8290
551.0000;4658.5100
552.0000;4669.9490
553.0000;4686.8370
554.0000;4699.0000
555.0000;4700.6700
556.0000;4693.0960
557.0000;4684.9900
558.0000;4680.3290
559.0000;4679.3500
560.0000;4684.4650
561.0000;4697.2850
562.0000;4712.5780
563.0000;4723.1880
564.0000;4726.5940
565.0000;4725.3260
566.0000;4723.4460
567.0000;4720.2250
568.0000;4719.1460
569.0000;4725.4210
570.0000;4736.1630
571.0000;4744.3650
572.0000;4745.7450
573.0000;4741.4670
574.0000;4736.1800
575.0000;4732.6210
576.0000;4729.2900
577.0000;4725.6870
578.0000;4722.4740
579.0000;4719.1020
580.0000;4713.7500
581.0000;4707.2040
582.0000;4701.6880
583.0000;4698.1750
584.0000;4697.8740
585.0000;4699.3540
586.0000;4699.4110
587.0000;4700.5190
588.0000;4703.9590
589.0000;4710.4580
590.0000;4718.6860
591.0000;4726.7730
592.0000;4734.3170
593.0000;4738.6220
594.0000;4740.5700
595.0000;4738.9340
596.0000;4733.1660
597.0000;4722.6580
598.0000;4709.2950
599.0000;4702.9150
600.0000;4713.2740
601.0000;4735.5890
602.0000;4755.4480
603.0000;4758.6870
604.0000;4751.4220
605.0000;4744.5900
606.0000;4744.8940
607.0000;4747.4230
608.0000;4749.5830
609.0000;4750.5390
610.0000;4753.4230
611.0000;4761.4530
612.0000;4774.1530
613.0000;4785.6670
614.0000;4791.6450
615.0000;4791.8030
616.0000;4793.3640
617.0000;4805.3190
618.0000;4820.4030
619.0000;4833.0700
620.0000;4840.6750
621.0000;4842.9750
622.0000;4845.3520
623.0000;4848.7620
624.0000;4850.2040
625.0000;4849.8760
626.0000;4847.3640
627.0000;4845.5670
628.0000;4848.8620
629.0000;4855.5440
630.0000;4860.1880
631.0000;4858.4280
632.0000;4852.1200
633.0000;4845.9810
634.0000;4842.1550
635.0000;4841.8630
636.0000;4847.0920
637.0000;4858.9740
638.0000;4871.0400
639.0000;4874.0940
640.0000;4866.1310
641.0000;4857.3350
642.0000;4857.9190
643.0000;4866.4590
644.0000;4876.5540
645.0000;4882.3110
646.0000;4886.0290
647.0000;4890.7600
648.0000;4898.6790
649.0000;4906.7580
650.0000;4914.3710
651.0000;4920.5390
652.0000;4926.7730
653.0000;4937.6960
654.0000;4951.7490
655.0000;4965.3030
656.0000;4979.2160
657.0000;4989.5550
658.0000;4997.5000
659.0000;5007.9480
660.0000;5014.4840
661.0000;5017.8540
662.0000;5016.9140
663.0000;5015.3660
664.0000;5022.4310
665.0000;5040.6520
666.0000;5059.8190
667.0000;5073.4270
668.0000;5077.3870
669.0000;5073.0590
670.0000;5066.0960
671.0000;5052.3690
672.0000;5032.7350
673.0000;5006.1840
674.0000;4979.9720
675.0000;4958.7690
676.0000;4947.3770
677.0000;4943.7230
678.0000;4935.4040
679.0000;4923.0520
680.0000;4913.0000
681.0000;4905.0050
682.0000;4901.8920
683.0000;4900.7370
684.0000;4894.6290
685.0000;4889.7310
686.0000;4889.5630
687.0000;4896.2630
688.0000;4907.9480
689.0000;4920.6610
690.0000;4932.4550
691.0000;4939.6790
692.0000;4939.2070
693.0000;4929.8360
694.0000;4921.7490
695.0000;4927.2880
696.0000;4942.6420
697.0000;4957.6180
698.0000;4964.2050
699.0000;4964.8950
700.0000;4965.4490
701.0000;4968.1810
702.0000;4971.7330
703.0000;4979.3010
704.0000;4990.1160
705.0000;4998.5960
706.0000;4999.6740
707.0000;4993.4610
708.0000;4988.3730
709.0000;4994.6350
710.0000;5005.5500
711.0000;5012.7040
712.0000;5010.0130
713.0000;5002.3600
714.0000;4995.8520
715.0000;4992.9520
716.0000;4995.0550
717.0000;5005.1340
718.0000;5022.1240
719.0000;5037.0160
720.0000;5041.0320
721.0000;5035.8270
722.0000;5031.8600
723.0000;5038.8910
724.0000;5048.4450
725.0000;5054.3460
726.0000;5053.1670
727.0000;5048.8850
728.0000;5047.7260
729.0000;5049.6150
730.0000;5051.3020
731.0000;5049.2150
732.0000;5045.3610
733.0000;5044.0360
734.0000;5047.7260
735.0000;5055.9520
736.0000;5067.6850
737.0000;5083.4460
738.0000;5095.8780
739.0000;5101.0720
740.0000;5095.9140
741.0000;5084.6190
742.0000;5072.0550
743.0000;5060.9560
744.0000;5058.6000
745.0000;5075.0010
746.0000;5099.2540
747.0000;5113.1100
748.0000;5103.7610
749.0000;5086.4930
750.0000;5080.5470
751.0000;5089.6980
752.0000;5101.1040
753.0000;5101.7200
754.0000;5093.9050
755.0000;5085.3000
756.0000;5082.4170
757.0000;5083.4860
758.0000;5086.7330
759.0000;5091.4680
760.0000;5096.2510
761.0000;5098.1540
762.0000;5095.8800
763.0000;5092.4210
764.0000;5090.7500
765.0000;5091.1380
766.0000;5093.5000
767.0000;5097.2340
768.0000;5102.6010
769.0000;5109.1300
770.0000;5115.7350
771.0000;5122.3290
772.0000;5130.6470
773.0000;5139.6410
774.0000;5144.8800
775.0000;5142.8980
776.0000;5134.0390
777.0000;5127.2000
778.0000;5130.4680
779.0000;5139.1930
780.0000;5147.2570
781.0000;5151.2350
782.0000;5152.7470
783.0000;5154.0560
784.0000;5154.7770
785.0000;5156.1850
786.0000;5161.3590
787.0000;5168.5720
788.0000;5173.9930
789.0000;5174.1000
790.0000;5172.0450
791.0000;5174.5340
792.0000;5184.6710
793.0000;5197.3150
794.0000;5208.0230
795.0000;5214.8400
796.0000;5217.6020
797.0000;5217.9460
798.0000;5215.0310
799.0000;5214.1340
800.0000;5220.0390
801.0000;5228.6070
802.0000;5237.0520
803.0000;5243.1400
804.0000;5246.2990
805.0000;5246.7810
806.0000;5243.8820
807.0000;5240.9290
808.0000;5242.5280
809.0000;5246.8720
810.0000;5251.1970
811.0000;5254.3570
812.0000;5255.1310
813.0000;5251.7610
814.0000;5243.0720
815.0000;5236.7920
816.0000;5241.7110
817.0000;5256.9090
818.0000;5271.2290
819.0000;5273.9600
820.0000;5269.9170
821.0000;5269.0150
822.0000;5276.8780
823.0000;5286.7820
824.0000;5293.4330
825.0000;5294.8120
826.0000;5294.4960
827.0000;5298.0530
828.0000;5302.4980
829.0000;5304.9130
830.0000;5302.1120
831.0000;5297.3760
832.0000;5296.3110
833.0000;5301.3540
834.0000;5309.5000
835.0000;5318.3470
836.0000;5326.0580
837.0000;5331.0180
838.0000;5332.9090
839.0000;5329.8210
840.0000;5324.6250
841.0000;5318.3080
842.0000;5312.5420
843.0000;5309.6200
844.0000;5310.9490
845.0000;5315.7040
846.0000;5322.0870
847.0000;5329.4460
848.0000;5335.4780
849.0000;5339.6370
850.0000;5339.9320
851.0000;5337.1020
852.0000;5330.8520
853.0000;5324.3780
854.0000;5321.1070
855.0000;5322.7730
856.0000;5330.1640
857.0000;5345.5750
858.0000;5364.1750
859.0000;5376.6270
860.0000;5376.2010
861.0000;5367.2650
862.0000;5361.2400
863.0000;5360.6510
864.0000;5360.6010
865.0000;5356.6750
866.0000;5351.0970
867.0000;5348.3660
868.0000;5350.6060
869.0000;5357.9130
870.0000;5368.0290
871.0000;5379.9080
872.0000;5390.3160
873.0000;5396.4350
874.0000;5396.5440
875.0000;5396.3260
876.0000;5403.2540
877.0000;5412.9770
878.0000;5421.8560
879.0000;5427.7770
880.0000;5430.4770
881.0000;5433.4280
882.0000;5436.0600
883.0000;5435.8000
884.0000;5430.4270
885.0000;5422.3090
886.0000;5419.1090
887.0000;5426.7690
888.0000;5441.0700
889.0000;5454.2190
890.0000;5462.1460
891.0000;5470.4320
892.0000;5486.6080
893.0000;5506.5410
894.0000;5524.2000
895.0000;5540.0950
896.0000;5547.2710
897.0000;5548.3470
898.0000;5542.6100
899.0000;5534.1230
900.0000;5532.3420
901.0000;5538.5030
902.0000;5548.8730
903.0000;5561.2510
904.0000;5573.9580
905.0000;5583.8880
906.0000;5589.4390
907.0000;5590.5820
908.0000;5592.0630
909.0000;5593.6730
910.0000;5596.3560
911.0000;5602.0240
912.0000;5610.6460
913.0000;5622.5390
914.0000;5638.7770
915.0000;5655.5040
916.0000;5673.1630
917.0000;5689.1620
918.0000;5697.4250
919.0000;5695.0560
920.0000;5682.4240
921.0000;5673.4960
922.0000;5681.4870
923.0000;5698.0310
924.0000;5711.4100
925.0000;5717.1230
926.0000;5719.1900
927.0000;5724.1250
928.0000;5729.1730
929.0000;5730.7000
930.0000;5726.3850
931.0000;5719.2110
932.0000;5716.4200
933.0000;5721.9980
934.0000;5730.5600
935.0000;5736.6470
936.0000;5738.9710
937.0000;5739.6720
938.0000;5741.1950
939.0000;5741.7540
940.0000;5742.1290
941.0000;5742.7170
942.0000;5742.9730
943.0000;5742.6870
944.0000;5742.0140
945.0000;5742.4690
946.0000;5745.7980
947.0000;5750.6050
948.0000;5754.5890
949.0000;5755.6260
950.0000;5755.9690
951.0000;5759.2950
952.0000;5765.2250
953.0000;5771.0410
954.0000;5776.0320
955.0000;5778.2370
956.0000;5778.1690
957.0000;5775.8650
958.0000;5771.9730
959.0000;5768.9480
960.0000;5767.7590
961.0000;5767.9030
962.0000;5768.2430
963.0000;5769.7640
964.0000;5772.3260
965.0000;5774.4000
966.0000;5779.2720
967.0000;5791.0100
968.0000;5809.5430
969.0000;5825.2100
970.0000;5831.2920
971.0000;5828.2440
972.0000;5827.6780
973.0000;5836.4400
974.0000;5849.8440
975.0000;5868.0270
976.0000;5887.6710
977.0000;5903.9820
978.0000;5914.9810
979.0000;5916.7550
980.0000;5914.7230
981.0000;5912.4100
982.0000;5909.3540
983.0000;5910.3680
984.0000;5916.5260
985.0000;5925.2760
986.0000;5934.9760
987.0000;5944.4180
988.0000;5955.0920
989.0000;5967.2350
990.0000;5977.4900
991.0000;5987.5960
992.0000;5994.6660
993.0000;5994.7180
994.0000;5984.7600
995.0000;5968.0970
996.0000;5958.6800
997.0000;5965.4830
998.0000;5980.5680
999.0000;5991.8130
1000.0000;5997.1840
1001.0000;5999.6900
1002.0000;6002.6050
1003.0000;6004.0690
1004.0000;6007.0150
1005.0000;6013.7260
1006.0000;6019.0450
1007.0000;6017.8570
1008.0000;6009.9390
1009.0000;6003.3840
1010.0000;6006.4120
1011.0000;6016.0700
1012.0000;6026.6710
1013.0000;6033.7630
1014.0000;6041.1400
1015.0000;6055.1720
1016.0000;6072.9760
1017.0000;6087.6060
1018.0000;6097.5090
1019.0000;6098.9480
1020.0000;6096.2830
1021.0000;6090.3730
1022.0000;6084.3690
1023.0000;6085.7810
1024.0000;6093.9950
1025.0000;6100.0960
1026.0000;6094.7410
1027.0000;6085.6870
1028.0000;6084.6320
1029.0000;6096.6920
1030.0000;6110.2520
1031.0000;6113.6830
1032.0000;6107.6490
1033.0000;6100.8060
1034.0000;6099.2410
1035.0000;6101.5820
1036.0000;6107.7410
1037.0000;6118.0700
1038.0000;6128.0260
1039.0000;6133.5790
1040.0000;6133.7280
1041.0000;6132.7640
1042.0000;6133.5420
1043.0000;6134.6070
1044.0000;6136.5630
1045.0000;6139.5080
1046.0000;6145.3250
1047.0000;6156.3090
1048.0000;6169.9290
1049.0000;6183.5240
1050.0000;6194.9370
1051.0000;6203.2930
1052.0000;6210.8940
1053.0000;6216.8460
1054.0000;6226.6380
1055.0000;6251.9600
1056.0000;6279.5870
1057.0000;6297.6840
1058.0000;6298.3980
1059.0000;6288.6600
1060.0000;6282.4210
1061.0000;6279.1640
1062.0000;6280.0480
1063.0000;6286.7670
1064.0000;6298.1510
1065.0000;6310.2320
1066.0000;6320.6110
1067.0000;6330.9260
1068.0000;6344.7290
1069.0000;6358.4350
1070.0000;6372.8930
1071.0000;6390.7370
1072.0000;6403.2990
1073.0000;6408.6220
1074.0000;6403.7470
1075.0000;6396.0460
1076.0000;6394.3800
1077.0000;6397.6590
1078.0000;6406.1280
1079.0000;6420.2540
1080.0000;6435.7210
1081.0000;6449.1880
1082.0000;6457.2500
1083.0000;6460.1480
1084.0000;6462.1580
1085.0000;6458.9040
1086.0000;6451.3640
1087.0000;6439.4380
1088.0000;6435.5570
1089.0000;6454.3830
1090.0000;6490.0820
1091.0000;6520.8480
1092.0000;6528.9890
1093.0000;6523.5490
1094.0000;6522.1810
1095.0000;6525.6960
1096.0000;6530.0890
1097.0000;6536.5000
1098.0000;6542.3720
1099.0000;6547.3650
1100.0000;6551.7130
1101.0000;6549.6740
1102.0000;6536.3530
1103.0000;6513.2150
1104.0000;6494.7480
1105.0000;6489.9900
1106.0000;6496.2350
1107.0000;6502.2980
1108.0000;6505.2820
1109.0000;6506.5660
1110.0000;6505.2110
1111.0000;6500.8700
1112.0000;6495.7530
1113.0000;6491.1640
1114.0000;6487.0450
1115.0000;6482.2460
1116.0000;6478.1800
1117.0000;6475.6450
1118.0000;6473.7300
1119.0000;6474.0900
1120.0000;6476.1960
1121.0000;6480.3050
1122.0000;6481.3330
1123.0000;6473.3920
1124.0000;6458.4210
1125.0000;6443.3370
1126.0000;6433.7640
1127.0000;6429.0470
1128.0000;6424.6030
1129.0000;6421.9070
1130.0000;6420.6160
1131.0000;6418.6210
1132.0000;6416.4400
1133.0000;6411.1070
1134.0000;6401.0910
1135.0000;6391.6230
1136.0000;6385.8700
1137.0000;6385.0670
1138.0000;6384.0230
1139.0000;6378.2920
1140.0000;6371.6920
1141.0000;6364.7000
1142.0000;6358.9360
1143.0000;6353.7950
1144.0000;6348.4640
1145.0000;6343.6860
1146.0000;6336.1580
1147.0000;6325.5250
1148.0000;6313.6290
1149.0000;6299.3640
1150.0000;6286.2760
1151.0000;6278.0160
1152.0000;6274.2930
1153.0000;6277.7860
1154.0000;6284.0370
1155.0000;6292.0280
1156.0000;6298.3460
1157.0000;6298.7190
1158.0000;6293.6700
1159.0000;6288.3010
1160.0000;6284.7170
1161.0000;6281.6820
1162.0000;6277.1720
1163.0000;6273.2780
1164.0000;6271.8140
1165.0000;6273.8740
1166.0000;6278.6300
1167.0000;6282.0290
1168.0000;6283.4530
1169.0000;6286.6290
1170.0000;6296.6250
1171.0000;6307.8320
1172.0000;6312.9820
1173.0000;6308.1700
1174.0000;6301.0020
1175.0000;6302.7140
1176.0000;6310.4490
1177.0000;6315.7190
1178.0000;6312.6810
1179.0000;6307.1980
1180.0000;6306.4300
1181.0000;6311.0460
1182.0000;6318.0000
1183.0000;6324.4510
1184.0000;6330.5040
1185.0000;6338.4530
1186.0000;6347.6520
1187.0000;6351.4170
1188.0000;6346.2480
1189.0000;6332.5600
1190.0000;6318.2540
1191.0000;6305.7720
1192.0000;6301.4880
1193.0000;6310.3820
1194.0000;6332.2300
1195.0000;6350.6110
1196.0000;6350.7870
1197.0000;6342.2790
1198.0000;6341.1530
1199.0000;6350.3420
1200.0000;6359.2650
1201.0000;6361.3590
1202.0000;6357.2740
1203.0000;6350.2840
1204.0000;6341.3940
1205.0000;6335.6430
1206.0000;6338.1080
1207.0000;6348.8400
1208.0000;6360.9610
1209.0000;6370.3860
1210.0000;6375.6640
1211.0000;6375.5760
1212.0000;6369.6860
1213.0000;6367.0460
1214.0000;6379.2130
1215.0000;6395.0650
1216.0000;6400.6540
1217.0000;6391.5810
1218.0000;6380.8340
1219.0000;6384.5320
1220.0000;6395.5000
1221.0000;6400.3820
1222.0000;6392.1110
1223.0000;6382.7070
1224.0000;6385.5110
1225.0000;6397.6370
1226.0000;6407.1720
1227.0000;6407.9030
1228.0000;6401.5320
1229.0000;6390.0610
1230.0000;6375.6250
1231.0000;6367.9610
1232.0000;6376.1970
1233.0000;6393.2500
1234.0000;6404.0550
1235.0000;6403.6000
1236.0000;6397.8490
1237.0000;6392.2780
1238.0000;6386.5290
1239.0000;6383.3740
1240.0000;6384.4810
1241.0000;6389.5570
1242.0000;6399.0770
1243.0000;6409.4290
1244.0000;6411.7500
1245.0000;6398.6230
1246.0000;6382.6660
1247.0000;6381.4660
1248.0000;6395.0780
1249.0000;6407.0210
1250.0000;6400.7100
1251.0000;6391.9600
1252.0000;6400.9690
1253.0000;6430.0650
1254.0000;6456.9720
1255.0000;6465.3410
1256.0000;6456.6860
1257.0000;6444.8160
1258.0000;6433.2790
1259.0000;6425.4350
1260.0000;6428.4640
1261.0000;6439.5100
1262.0000;6445.8560
1263.0000;6440.1660
1264.0000;6432.1860
1265.0000;6432.9960
1266.0000;6440.6250
1267.0000;6447.4590
1268.0000;6448.0800
1269.0000;6447.3900
1270.0000;6451.8480
1271.0000;6460.6780
1272.0000;6467.6040
1273.0000;6469.0490
1274.0000;6466.7440
1275.0000;6465.3410
1276.0000;6465.7080
1277.0000;6469.0590
1278.0000;6477.2070
1279.0000;6487.9880
1280.0000;6498.7630
1281.0000;6506.6630
1282.0000;6512.7420
1283.0000;6522.2670
1284.0000;6529.1110
1285.0000;6528.9580
1286.0000;6519.1390
1287.0000;6509.4820
1288.0000;6514.8850
1289.0000;6529.7430
1290.0000;6536.8680
1291.0000;6524.8540
1292.0000;6508.8710
1293.0000;6507.4250
1294.0000;6519.6500
1295.0000;6533.9120
1296.0000;6541.9480
1297.0000;6545.3320
1298.0000;6546.2480
1299.0000;6543.2580
1300.0000;6537.8910
1301.0000;6528.6110
1302.0000;6524.0670
1303.0000;6535.7430
1304.0000;6563.9290
1305.0000;6588.5960
1306.0000;6591.8520
1307.0000;6580.5200
1308.0000;6574.0980
1309.0000;6577.6980
1310.0000;6585.9810
1311.0000;6598.4860
1312.0000;6611.2580
1313.0000;6620.1020
1314.0000;6621.2870
1315.0000;6617.5000
1316.0000;6613.4660
1317.0000;6609.3800
1318.0000;6608.8330
1319.0000;6614.2540
1320.0000;6621.4310
1321.0000;6625.3350
1322.0000;6625.6280
1323.0000;6624.0550
1324.0000;6620.8130
1325.0000;6618.7690
1326.0000;6622.4140
1327.0000;6630.7320
1328.0000;6638.5890
1329.0000;6641.7550
1330.0000;6642.5870
1331.0000;6645.6430
1332.0000;6649.8520
1333.0000;6652.9290
1334.0000;6655.6640
1335.0000;6654.3010
1336.0000;6644.5490
1337.0000;6628.3020
1338.0000;6622.3060
1339.0000;6642.7850
1340.0000;6671.4540
1341.0000;6682.3420
1342.0000;6668.1620
1343.0000;6651.4000
1344.0000;6652.3870
1345.0000;6660.3620
1346.0000;6663.9980
1347.0000;6660.4430
1348.0000;6656.4250
1349.0000;6657.1790
1350.0000;6660.0090
1351.0000;6661.0830
1352.0000;6659.3130
1353.0000;6656.5920
1354.0000;6654.0830
1355.0000;6652.4040
1356.0000;6652.1640
1357.0000;6653.7570
1358.0000;6657.2660
1359.0000;6664.1710
1360.0000;6670.2660
1361.0000;6668.8160
1362.0000;6656.3050
1363.0000;6643.3240
1364.0000;6641.4410
1365.0000;6648.1820
1366.0000;6652.7640
1367.0000;6649.9170
1368.0000;6648.9920
1369.0000;6661.4210
1370.0000;6678.9390
1371.0000;6682.9850
1372.0000;6662.9230
1373.0000;6639.7610
1374.0000;6634.0840
1375.0000;6645.6400
1376.0000;6661.5480
1377.0000;6676.0520
1378.0000;6685.5700
1379.0000;6685.4230
1380.0000;6675.2590
1381.0000;6667.0990
1382.0000;6668.1840
1383.0000;6672.8100
1384.0000;6675.4260
1385.0000;6676.7540
1386.0000;6677.8470
1387.0000;6678.6130
1388.0000;6680.3690
1389.0000;6685.0860
1390.0000;6692.1850
1391.0000;6700.8010
1392.0000;6710.4940
1393.0000;6718.0030
1394.0000;6723.8960
1395.0000;6725.3570
1396.0000;6723.7410
1397.0000;6720.1840
1398.0000;6715.3730
1399.0000;6713.6850
1400.0000;6714.1210
1401.0000;6710.4940
1402.0000;6698.2170
1403.0000;6685.8610
1404.0000;6679.6190
1405.0000;6682.3690
1406.0000;6691.0720
1407.0000;6703.2530
1408.0000;6718.1080
1409.0000;6732.9550
1410.0000;6744.9090
1411.0000;6756.4070
1412.0000;6769.4430
1413.0000;6778.1600
1414.0000;6784.0390
1415.0000;6784.3870
1416.0000;6783.6350
1417.0000;6786.1020
1418.0000;6785.9910
1419.0000;6778.6160
1420.0000;6766.4190
1421.0000;6760.2710
1422.0000;6765.8100
1423.0000;6778.5520
1424.0000;6792.3810
1425.0000;6804.6050
1426.0000;6811.3810
1427.0000;6808.7670
1428.0000;6803.5300
1429.0000;6810.3120
1430.0000;6823.7710
1431.0000;6829.9790
1432.0000;6820.6370
1433.0000;6806.8950
1434.0000;6802.6570
1435.0000;6806.6560
1436.0000;6810.3200
1437.0000;6809.3290
1438.0000;6806.4730
1439.0000;6802.8230
1440.0000;6798.8440
1441.0000;6795.5190
1442.0000;6794.2430
1443.0000;6792.2160
1444.0000;6783.1020
1445.0000;6772.2440
1446.0000;6769.9050
1447.0000;6780.7190
1448.0000;6796.6810
1449.0000;6809.6870
1450.0000;6816.7220
1451.0000;6818.7080
1452.0000;6814.7040
1453.0000;6805.3520
1454.0000;6795.7040
1455.0000;6785.9110
1456.0000;6775.4080
1457.0000;6766.1290
1458.0000;6762.1400
1459.0000;6764.1610
1460.0000;6772.3220
1461.0000;6779.4170
1462.0000;6782.8040
1463.0000;6784.8880
1464.0000;6789.6410
1465.0000;6792.8070
1466.0000;6792.1230
1467.0000;6786.6730
1468.0000;6778.9000
1469.0000;6770.2980
1470.0000;6764.5250
1471.0000;6765.5050
1472.0000;6774.3580
1473.0000;6781.8490
1474.0000;6777.0690
1475.0000;6768.9070
1476.0000;6768.4200
1477.0000;6777.5810
1478.0000;6794.1790
1479.0000;6817.6850
1480.0000;6839.5520
1481.0000;6850.9570
1482.0000;6847.7410
1483.0000;6839.5820
1484.0000;6833.8540
1485.0000;6829.4730
1486.0000;6830.6120
1487.0000;6836.3500
1488.0000;6838.7350
1489.0000;6832.8910
1490.0000;6822.6050
1491.0000;6812.6800
1492.0000;6803.7940
1493.0000;6794.4680
1494.0000;6783.2130
1495.0000;6778.7890
1496.0000;6786.2230
1497.0000;6802.3950
1498.0000;6813.2950
1499.0000;6810.9140
1500.0000;6804.5790
1501.0000;6803.6120
1502.0000;6805.8840
1503.0000;6809.5200
1504.0000;6813.8900
1505.0000;6821.0390
1506.0000;6836.8760
1507.0000;6850.9090
1508.0000;6851.6260
1509.0000;6835.1050
1510.0000;6822.3830
1511.0000;6833.5880
1512.0000;6854.5080
1513.0000;6863.6650
1514.0000;6858.9190
1515.0000;6857.3610
1516.0000;6872.4400
1517.0000;6890.9760
1518.0000;6899.5220
1519.0000;6897.0270
1520.0000;6897.5870
1521.0000;6912.4380
1522.0000;6924.3880
1523.0000;6917.7510
1524.0000;6896.7440
1525.0000;6884.0380
1526.0000;6891.5030
1527.0000;6908.2020
1528.0000;6926.0310
1529.0000;6940.2310
1530.0000;6943.9760
1531.0000;6933.2370
1532.0000;6916.3090
1533.0000;6903.8230
1534.0000;6897.0130
1535.0000;6895.1880
1536.0000;6899.9170
1537.0000;6909.5560
1538.0000;6921.1850
1539.0000;6931.8510
1540.0000;6937.5380
1541.0000;6936.2800
1542.0000;6934.8750
1543.0000;6939.7490
1544.0000;6944.8290
1545.0000;6945.4050
1546.0000;6942.0080
1547.0000;6941.6630
1548.0000;6949.0830
1549.0000;6955.7220
1550.0000;6951.8480
1551.0000;6941.9950
1552.0000;6938.4180
1553.0000;6947.1700
1554.0000;6960.3120
1555.0000;6970.8030
1556.0000;6977.8030
1557.0000;6983.1990
1558.0000;6985.6540
1559.0000;6984.5150
1560.0000;6983.3580
1561.0000;6978.3540
1562.0000;6967.8590
1563.0000;6953.5500
1564.0000;6942.0420
1565.0000;6938.0880
1566.0000;6939.0890
1567.0000;6935.2650
1568.0000;6929.9410
1569.0000;6929.4980
1570.0000;6937.7360
1571.0000;6945.2100
1572.0000;6940.4970
1573.0000;6927.6840
1574.0000;6918.7550
1575.0000;6918.7860
1576.0000;6920.9660
1577.0000;6915.8100
1578.0000;6911.2520
1579.0000;6916.4680
1580.0000;6931.7280
1581.0000;6942.3400
1582.0000;6937.5090
1583.0000;6923.5980
1584.0000;6909.7940
1585.0000;6899.9590
1586.0000;6899.8290
1587.0000;6914.2980
1588.0000;6933.2390
1589.0000;6940.6700
1590.0000;6937.8150
1591.0000;6934.4830
1592.0000;6933.8180
1593.0000;6934.2040
1594.0000;6934.5080
1595.0000;6937.9360
1596.0000;6949.8460
1597.0000;6969.1880
1598.0000;6982.8040
1599.0000;6981.9170
1600.0000;6969.7610
1601.0000;6956.6860
1602.0000;6945.3710
1603.0000;6941.0960
1604.0000;6948.8870
1605.0000;6960.1200
1606.0000;6961.5280
1607.0000;6955.9890
1608.0000;6953.8880
1609.0000;6958.4800
1610.0000;6962.1830
1611.0000;6958.0020
1612.0000;6950.5530
1613.0000;6945.6360
1614.0000;6945.6700
1615.0000;6951.6310
1616.0000;6965.1160
1617.0000;6979.5770
1618.0000;6986.1100
1619.0000;6983.0300
1620.0000;6977.3620
1621.0000;6973.3730
1622.0000;6967.5420
1623.0000;6958.4350
1624.0000;6949.0560
1625.0000;6940.8540
1626.0000;6936.4660
1627.0000;6937.3170
1628.0000;6941.8960
1629.0000;6951.0730
1630.0000;6962.9590
1631.0000;6974.0500
1632.0000;6979.8990
1633.0000;6976.7410
1634.0000;6969.2250
1635.0000;6965.9020
1636.0000;6966.5960
1637.0000;6969.6860
1638.0000;6974.6690
1639.0000;6980.3760
1640.0000;6985.5530
1641.0000;6988.6230
1642.0000;6989.4600
1643.0000;6987.6150
1644.0000;6986.5630
1645.0000;6989.4690
1646.0000;6993.2110
1647.0000;6997.4430
1648.0000;6998.6650
1649.0000;6990.6650
1650.0000;6970.5790
1651.0000;6950.8950
1652.0000;6941.1110
1653.0000;6941.1040
1654.0000;6939.3260
1655.0000;6935.7070
1656.0000;6933.5760
1657.0000;6933.6450
1658.0000;6934.9870
1659.0000;6933.8500
1660.0000;6931.5690
1661.0000;6932.5070
1662.0000;6939.0380
1663.0000;6942.9520
1664.0000;6936.9290
1665.0000;6924.0450
1666.0000;6912.2580
1667.0000;6904.1980
1668.0000;6898.7000
1669.0000;6894.0070
1670.0000;6892.4120
1671.0000;6891.6200
1672.0000;6891.7010
1673.0000;6888.8310
1674.0000;6881.0440
1675.0000;6872.7100
1676.0000;6866.8320
1677.0000;6863.8310
1678.0000;6860.4760
1679.0000;6857.2580
1680.0000;6854.3860
1681.0000;6850.5960
1682.0000;6847.8370
1683.0000;6845.9040
1684.0000;6845.3700
1685.0000;6844.3150
1686.0000;6842.0160
1687.0000;6839.9770
1688.0000;6837.5000
1689.0000;6837.1460
1690.0000;6841.8810
1691.0000;6851.0710
1692.0000;6855.6560
1693.0000;6848.6410
1694.0000;6838.4030
1695.0000;6836.3320
1696.0000;6840.5700
1697.0000;6843.9410
1698.0000;6843.7630
1699.0000;6839.8000
1700.0000;6829.2700
1701.0000;6818.5730
1702.0000;6816.4990
1703.0000;6824.0910
1704.0000;6830.5000
1705.0000;6829.5290
1706.0000;6824.1390
1707.0000;6817.4000
1708.0000;6809.0910
1709.0000;6798.4140
1710.0000;6787.1040
1711.0000;6780.7860
1712.0000;6781.1640
1713.0000;6789.1030
1714.0000;6801.0060
1715.0000;6813.0890
1716.0000;6815.2310
1717.0000;6801.1740
1718.0000;6785.7610
1719.0000;6784.6410
1720.0000;6794.3480
1721.0000;6806.5090
1722.0000;6818.0410
1723.0000;6822.9160
1724.0000;6815.3960
1725.0000;6804.0600
1726.0000;6801.3740
1727.0000;6807.7780
1728.0000;6819.9950
1729.0000;6836.2750
1730.0000;6846.1490
1731.0000;6841.3270
1732.0000;6826.7450
1733.0000;6814.8100
1734.0000;6808.4670
1735.0000;6809.2990
1736.0000;6819.8540
1737.0000;6828.6780
1738.0000;6818.3520
1739.0000;6800.9200
1740.0000;6797.8380
1741.0000;6812.3550
1742.0000;6825.3390
1743.0000;6823.8470
1744.0000;6815.8960
1745.0000;6809.8730
1746.0000;6805.7590
1747.0000;6804.3590
1748.0000;6806.7200
1749.0000;6808.6880
1750.0000;6804.8560
1751.0000;6801.1990
1752.0000;6804.8400
1753.0000;6814.1420
1754.0000;6821.5620
1755.0000;6823.5360
1756.0000;6818.3120
1757.0000;6801.8280
1758.0000;6785.4860
1759.0000;6788.0240
1760.0000;6811.2650
1761.0000;6829.7180
1762.0000;6829.0720
1763.0000;6819.4870
1764.0000;6814.4740
1765.0000;6810.3680
1766.0000;6804.2870
1767.0000;6797.8020
1768.0000;6796.0630
1769.0000;6803.5780
1770.0000;6811.8490
1771.0000;6807.0990
1772.0000;6795.5700
1773.0000;6794.8620
1774.0000;6810.7510
1775.0000;6825.4260
1776.0000;6826.2010
1777.0000;6818.6240
1778.0000;6813.2670
1779.0000;6809.6070
1780.0000;6807.1380
1781.0000;6806.4860
1782.0000;6803.5000
1783.0000;6791.0440
1784.0000;6778.2470
1785.0000;6775.5190
1786.0000;6782.2530
1787.0000;6778.9510
1788.0000;6754.8870
1789.0000;6732.2430
1790.0000;6728.7580
1791.0000;6738.2010
1792.0000;6740.2720
1793.0000;6733.0500
1794.0000;6723.3510
1795.0000;6713.5080
1796.0000;6704.9180
1797.0000;6693.8370
1798.0000;6688.5140
1799.0000;6694.6680
1800.0000;6712.6530
1801.0000;6728.5480
1802.0000;6731.9280
1803.0000;6725.1210
1804.0000;6712.1250
1805.0000;6696.7310
1806.0000;6688.8190
1807.0000;6693.1800
1808.0000;6700.3200
1809.0000;6703.5700
1810.0000;6703.8670
1811.0000;6702.0090
1812.0000;6695.7060
1813.0000;6682.4350
1814.0000;6662.8570
1815.0000;6650.7920
1816.0000;6656.6830
1817.0000;6670.0350
1818.0000;6672.7550
1819.0000;6666.6370
1820.0000;6660.5170
1821.0000;6656.6910
1822.0000;6653.0210
1823.0000;6648.3360
1824.0000;6644.3130
1825.0000;6639.0250
1826.0000;6635.0390
1827.0000;6633.7240
1828.0000;6636.0110
1829.0000;6642.0600
1830.0000;6653.4830
1831.0000;6661.0830
1832.0000;6652.4700
1833.0000;6632.5290
1834.0000;6625.1820
1835.0000;6639.9850
1836.0000;6658.3660
1837.0000;6666.3900
1838.0000;6665.1930
1839.0000;6656.9880
1840.0000;6642.7770
1841.0000;6632.0820
1842.0000;6629.9910
1843.0000;6630.3450
1844.0000;6626.4140
1845.0000;6622.8800
1846.0000;6622.1570
1847.0000;6622.5300
1848.0000;6614.4120
1849.0000;6595.4000
1850.0000;6587.1480
1851.0000;6608.7140
1852.0000;6639.0950
1853.0000;6645.9120
1854.0000;6633.0030
1855.0000;6629.8320
1856.0000;6644.8190
1857.0000;6658.4380
1858.0000;6658.3140
1859.0000;6650.3940
1860.0000;6644.2720
1861.0000;6640.0170
1862.0000;6636.9210
1863.0000;6636.2040
1864.0000;6642.8700
1865.0000;6662.4210
1866.0000;6679.4970
1867.0000;6675.2870
1868.0000;6655.0440
1869.0000;6644.2850
1870.0000;6650.6820
1871.0000;6660.8770
1872.0000;6664.7910
1873.0000;6669.5120
1874.0000;6682.3490
1875.0000;6697.3390
1876.0000;6704.9820
1877.0000;6702.2940
1878.0000;6699.6950
1879.0000;6705.1750
1880.0000;6711.9280
1881.0000;6715.3300
1882.0000;6716.4320
1883.0000;6719.5760
1884.0000;6725.1180
1885.0000;6735.3770
1886.0000;6753.1340
1887.0000;6764.1830
1888.0000;6754.9670
1889.0000;6734.5630
1890.0000;6731.8730
1891.0000;6746.8180
1892.0000;6752.1110
1893.0000;6732.6080
1894.0000;6713.5430
1895.0000;6717.1620
1896.0000;6731.6070
1897.0000;6733.8490
1898.0000;6725.3790
1899.0000;6723.9600
1900.0000;6736.5600
1901.0000;6745.4580
1902.0000;6734.2610
1903.0000;6716.4520
1904.0000;6711.0370
1905.0000;6717.2240
1906.0000;6719.9740
1907.0000;6715.1640
1908.0000;6714.0510
1909.0000;6723.3940
1910.0000;6736.6930
1911.0000;6747.1100
1912.0000;6751.6510
1913.0000;6750.4770
1914.0000;6742.7750
1915.0000;6733.4110
1916.0000;6725.5680
1917.0000;6724.2540
1918.0000;6733.7210
1919.0000;6749.3750
1920.0000;6758.5360
1921.0000;6758.6520
1922.0000;6762.3600
1923.0000;6776.4220
1924.0000;6786.2110
1925.0000;6780.7430
1926.0000;6768.8800
1927.0000;6769.0890
1928.0000;6780.1220
1929.0000;6788.8560
1930.0000;6789.6200
1931.0000;6787.9710
1932.0000;6788.5940
1933.0000;6788.4790
1934.0000;6787.7200
1935.0000;6785.3550
1936.0000;6779.5610
1937.0000;6770.7800
1938.0000;6765.4700
1939.0000;6767.8060
1940.0000;6772.6400
1941.0000;6770.5700
1942.0000;6766.7880
1943.0000;6767.8820
1944.0000;6775.3250
1945.0000;6787.8600
1946.0000;6804.9910
1947.0000;6819.6150
1948.0000;6826.6680
1949.0000;6828.1460
1950.0000;6837.6300
1951.0000;6849.0600
1952.0000;6853.2050
1953.0000;6846.0770
1954.0000;6838.5960
1955.0000;6839.6550
1956.0000;6843.4170
1957.0000;6843.3680
1958.0000;6842.1110
1959.0000;6844.0790
1960.0000;6849.0460
1961.0000;6852.5100
1962.0000;6851.4000
1963.0000;6850.8000
1964.0000;6856.3310
1965.0000;6864.0390
1966.0000;6868.7520
1967.0000;6870.5700
1968.0000;6875.2610
1969.0000;6884.1690
1970.0000;6896.6200
1971.0000;6915.0090
1972.0000;6927.3440
1973.0000;6925.0920
1974.0000;6911.1770
1975.0000;6904.1430
1976.0000;6907.1110
1977.0000;6911.6640
1978.0000;6914.2690
1979.0000;6916.0000
1980.0000;6915.4260
1981.0000;6915.6140
1982.0000;6921.5610
1983.0000;6932.4190
1984.0000;6947.0070
1985.0000;6961.9960
1986.0000;6964.8190
1987.0000;6946.6090
1988.0000;6924.7080
1989.0000;6919.0440
1990.0000;6927.8900
1991.0000;6941.3590
1992.0000;6955.0070
1993.0000;6954.4280
1994.0000;6931.6560
1995.0000;6915.9070
1996.0000;6934.3480
1997.0000;6965.5010
1998.0000;6980.0030
1999.0000;6979.6070
2000.0000;6982.1520
2001.0000;6988.3450
2002.0000;6991.5660
2003.0000;6989.8580
2004.0000;6985.0130
2005.0000;6979.6870
2006.0000;6976.0400
2007.0000;6977.9630
2008.0000;6984.2800
2009.0000;6986.4520
2010.0000;6981.4670
2011.0000;6976.0840
2012.0000;6973.7220
2013.0000;6975.9270
2014.0000;6982.8770
2015.0000;6994.4510
2016.0000;7010.3010
2017.0000;7025.1990
2018.0000;7030.0550
2019.0000;7019.6390
2020.0000;7007.3010
2021.0000;7007.3190
2022.0000;7007.9720
2023.0000;6992.4260
2024.0000;6974.2190
2025.0000;6977.4090
2026.0000;7003.5340
2027.0000;7024.2970
2028.0000;7025.3040
2029.0000;7012.9720
2030.0000;6991.9090
2031.0000;6973.1670
2032.0000;6974.9620
2033.0000;6994.3200
2034.0000;7006.3810
2035.0000;7006.8300
2036.0000;7007.7280
2037.0000;7014.8130
2038.0000;7017.9720
2039.0000;7010.8350
2040.0000;7000.0160
2041.0000;6998.8460
2042.0000;7003.7970
2043.0000;7001.2060
2044.0000;6989.3300
2045.0000;6978.0940
2046.0000;6973.4490
2047.0000;6970.0000
2048.0000;6958.4550
2049.0000;6948.0870
2050.0000;6945.2740
2051.0000;6950.3780
2052.0000;6954.0930
2053.0000;6954.3490
2054.0000;6952.8810
2055.0000;6949.8350
2056.0000;6947.9000
2057.0000;6948.4710
2058.0000;6953.6080
2059.0000;6967.0470
2060.0000;6982.1940
2061.0000;6984.8780
2062.0000;6971.1010
2063.0000;6960.8180
2064.0000;6968.1290
2065.0000;6975.4000
2066.0000;6962.9790
2067.0000;6947.1050
2068.0000;6949.3010
2069.0000;6965.9920
2070.0000;6976.2450
2071.0000;6974.6870
2072.0000;6969.0350
2073.0000;6962.3120
2074.0000;6959.5850
2075.0000;6969.8580
2076.0000;6981.0870
2077.0000;6974.1840
2078.0000;6954.5550
2079.0000;6943.3580
2080.0000;6946.3330
2081.0000;6954.0410
2082.0000;6961.4390
2083.0000;6969.6920
2084.0000;6979.4890
2085.0000;6983.4180
2086.0000;6977.1090
2087.0000;6962.8230
2088.0000;6952.1050
2089.0000;6948.9150
2090.0000;6953.2990
2091.0000;6965.2440
2092.0000;6974.3170
2093.0000;6967.0100
2094.0000;6958.2640
2095.0000;6969.1220
2096.0000;6989.2640
2097.0000;6997.1440
2098.0000;6990.1490
2099.0000;6982.9210
2100.0000;6981.3350
2101.0000;6982.2620
2102.0000;6986.2510
2103.0000;6987.3940
2104.0000;6975.4620
2105.0000;6961.5020
2106.0000;6966.4850
2107.0000;6985.3780
2108.0000;6987.3430
2109.0000;6964.3490
2110.0000;6943.3310
2111.0000;6940.2830
2112.0000;6950.5000
2113.0000;6968.5720
2114.0000;6987.7210
2115.0000;6995.9390
2116.0000;6990.8680
2117.0000;6983.5920
2118.0000;6977.2370
2119.0000;6978.1140
2120.0000;6990.4580
2121.0000;7004.2890
2122.0000;7011.7720
2123.0000;7012.0010
2124.0000;7007.2050
2125.0000;6998.6320
2126.0000;6993.8910
2127.0000;6995.0530
2128.0000;7001.1570
2129.0000;7011.3450
2130.0000;7015.1180
2131.0000;7003.6980
2132.0000;6990.5420
2133.0000;6991.7210
2134.0000;7000.3910
2135.0000;7005.1650
2136.0000;7002.9060
2137.0000;6987.6620
2138.0000;6961.3790
2139.0000;6942.8770
2140.0000;6943.5820
2141.0000;6948.1200
2142.0000;6940.1290
2143.0000;6929.3410
2144.0000;6917.3710
2145.0000;6911.5210
2146.0000;6920.4560
2147.0000;6941.4090
2148.0000;6947.2990
2149.0000;6930.8030
2150.0000;6923.3570
2151.0000;6945.3110
2152.0000;6970.4000
2153.0000;6978.6610
2154.0000;6969.3680
2155.0000;6948.7550
2156.0000;6922.3650
2157.0000;6905.7040
2158.0000;6905.9470
2159.0000;6914.9390
2160.0000;6928.5870
2161.0000;6942.8710
2162.0000;6952.8570
2163.0000;6954.2540
2164.0000;6948.3330
2165.0000;6934.5750
2166.0000;6919.0050
2167.0000;6905.7300
2168.0000;6898.3140
2169.0000;6899.6330
2170.0000;6905.1000
2171.0000;6911.5260
2172.0000;6912.5060
2173.0000;6899.6320
2174.0000;6885.9980
2175.0000;6887.8090
2176.0000;6896.6030
2177.0000;6890.3500
2178.0000;6875.0650
2179.0000;6872.6660
2180.0000;6888.0020
2181.0000;6901.9140
2182.0000;6903.1330
2183.0000;6904.4290
2184.0000;6917.6780
2185.0000;6929.3660
2186.0000;6928.7440
2187.0000;6921.6240
2188.0000;6927.2290
2189.0000;6940.7720
2190.0000;6940.3910
2191.0000;6921.9650
2192.0000;6909.6670
2193.0000;6916.4710
2194.0000;6923.7210
2195.0000;6915.8910
2196.0000;6902.9300
2197.0000;6892.4420
2198.0000;6886.3730
2199.0000;6883.5850
2200.0000;6884.0340
2201.0000;6878.7290
2202.0000;6866.4820
2203.0000;6852.6860
2204.0000;6839.7650
2205.0000;6834.0600
2206.0000;6839.0390
2207.0000;6846.8000
2208.0000;6840.0180
2209.0000;6829.7880
2210.0000;6832.1110
2211.0000;6846.0540
2212.0000;6861.1810
2213.0000;6872.3240
2214.0000;6877.1100
2215.0000;6872.6430
2216.0000;6866.4310
2217.0000;6867.0480
2218.0000;6866.1930
2219.0000;6857.1700
2220.0000;6844.2850
2221.0000;6830.3300
2222.0000;6822.0320
2223.0000;6825.4310
2224.0000;6840.4620
2225.0000;6847.8890
2226.0000;6840.2750
2227.0000;6831.7590
2228.0000;6831.8310
2229.0000;6833.2700
2230.0000;6828.6480
2231.0000;6826.0090
2232.0000;6835.2280
2233.0000;6848.1930
2234.0000;6848.1760
2235.0000;6834.9230
2236.0000;6822.8520
2237.0000;6816.2640
2238.0000;6811.6790
2239.0000;6808.3340
2240.0000;6808.7630
2241.0000;6812.8250
2242.0000;6817.1510
2243.0000;6815.7130
2244.0000;6811.9780
2245.0000;6812.5690
2246.0000;6816.5940
2247.0000;6820.4890
2248.0000;6822.8010
2249.0000;6822.9850
2250.0000;6820.4360
2251.0000;6814.7010
2252.0000;6805.1900
2253.0000;6803.3340
2254.0000;6820.2880
2255.0000;6840.4170
2256.0000;6846.2920
2257.0000;6835.8080
2258.0000;6814.3400
2259.0000;6787.4420
2260.0000;6768.7550
2261.0000;6766.0560
2262.0000;6771.3510
2263.0000;6781.3300
2264.0000;6795.0170
2265.0000;6809.3880
2266.0000;6815.1100
2267.0000;6804.9590
2268.0000;6788.1300
2269.0000;6782.3180
2270.0000;6787.3920
2271.0000;6797.6630
2272.0000;6810.3320
2273.0000;6815.0000
2274.0000;6809.0030
2275.0000;6804.4290
2276.0000;6806.9230
2277.0000;6809.3090
2278.0000;6806.4000
2279.0000;6807.0210
2280.0000;6823.8080
2281.0000;6836.7420
2282.0000;6821.4040
2283.0000;6789.5050
2284.0000;6770.6100
2285.0000;6771.0680
2286.0000;6778.5530
2287.0000;6790.5780
2288.0000;6796.5470
2289.0000;6789.6870
2290.0000;6786.3440
2291.0000;6797.9120
2292.0000;6811.7600
2293.0000;6819.6290
2294.0000;6816.1330
2295.0000;6797.7500
2296.0000;6772.2180
2297.0000;6754.8640
2298.0000;6750.1550
2299.0000;6747.3100
2300.0000;6747.7670
2301.0000;6754.7120
2302.0000;6767.1970
2303.0000;6777.1410
2304.0000;6777.6990
2305.0000;6779.3250
2306.0000;6795.1420
2307.0000;6808.4770
2308.0000;6806.8610
2309.0000;6794.6810
2310.0000;6788.0000
2311.0000;6785.6450
2312.0000;6783.2950
2313.0000;6780.7880
2314.0000;6775.8020
2315.0000;6767.8130
2316.0000;6754.1760
2317.0000;6735.4860
2318.0000;6719.2930
2319.0000;6710.6770
2320.0000;6710.1220
2321.0000;6710.2280
2322.0000;6715.1800
2323.0000;6719.5550
2324.0000;6727.5610
2325.0000;6746.7940
2326.0000;6771.0900
2327.0000;6793.3250
2328.0000;6805.2400
2329.0000;6808.3570
2330.0000;6801.6790
2331.0000;6797.5470
2332.0000;6805.1780
2333.0000;6809.0210
2334.0000;6798.2970
2335.0000;6784.3000
2336.0000;6778.2980
2337.0000;6778.6390
2338.0000;6781.1790
2339.0000;6783.3290
2340.0000;6777.0010
2341.0000;6762.4940
2342.0000;6743.5810
2343.0000;6725.3490
2344.0000;6717.6930
2345.0000;6725.7020
2346.0000;6737.6900
2347.0000;6745.8960
2348.0000;6750.4250
2349.0000;6748.3110
2350.0000;6749.0000
2351.0000;6767.3460
2352.0000;6788.7030
2353.0000;6797.4030
2354.0000;6795.2800
2355.0000;6798.8260
2356.0000;6803.5920
2357.0000;6801.2370
2358.0000;6792.3770
2359.0000;6789.1840
2360.0000;6795.2310
2361.0000;6800.9150
2362.0000;6801.3210
2363.0000;6798.9330
2364.0000;6795.1380
2365.0000;6790.8770
2366.0000;6786.9290
2367.0000;6786.4230
2368.0000;6793.3250
2369.0000;6800.0490
2370.0000;6792.8650
2371.0000;6775.8800
2372.0000;6765.3800
2373.0000;6761.2460
2374.0000;6743.4950
2375.0000;6715.9330
2376.0000;6710.4270
2377.0000;6738.4470
2378.0000;6765.1320
2379.0000;6768.4970
2380.0000;6760.7140
2381.0000;6751.2920
2382.0000;6739.4030
2383.0000;6727.5620
2384.0000;6722.8080
2385.0000;6728.8520
2386.0000;6741.7310
2387.0000;6748.1040
2388.0000;6746.5000
2389.0000;6741.1100
2390.0000;6732.5360
2391.0000;6724.7450
2392.0000;6720.3900
2393.0000;6719.0400
2394.0000;6721.2090
2395.0000;6726.8870
2396.0000;6734.4370
2397.0000;6745.8410
2398.0000;6764.1100
2399.0000;6773.7220
2400.0000;6763.8690
2401.0000;6746.6090
2402.0000;6744.8880
2403.0000;6751.0580
2404.0000;6752.4820
2405.0000;6746.4140
2406.0000;6723.9220
2407.0000;6694.3820
2408.0000;6688.4460
2409.0000;6709.6820
2410.0000;6722.9530
2411.0000;6716.3690
2412.0000;6708.0240
2413.0000;6704.8800
2414.0000;6703.4530
2415.0000;6702.2850
2416.0000;6706.9720
2417.0000;6721.8800
2418.0000;6734.5000
2419.0000;6732.1070
2420.0000;6719.9250
2421.0000;6709.1330
2422.0000;6703.5520
2423.0000;6706.3650
2424.0000;6717.9840
2425.0000;6733.7130
2426.0000;6746.9200
2427.0000;6743.7640
2428.0000;6723.1000
2429.0000;6711.0360
2430.0000;6716.2400
2431.0000;6721.0190
2432.0000;6717.2930
2433.0000;6712.5780
2434.0000;6710.6700
2435.0000;6707.7110
2436.0000;6701.8450
2437.0000;6692.7880
2438.0000;6676.5740
2439.0000;6665.3010
2440.0000;6671.6800
2441.0000;6685.5660
2442.0000;6679.1660
2443.0000;6662.6600
2444.0000;6663.8590
2445.0000;6679.0230
2446.0000;6681.1720
2447.0000;6669.9060
2448.0000;6666.6940
2449.0000;6676.6470
2450.0000;6689.8470
2451.0000;6700.9530
2452.0000;6707.4540
2453.0000;6707.3440
2454.0000;6701.8700
2455.0000;6693.3970
2456.0000;6689.3620
2457.0000;6700.0800
2458.0000;6707.2000
2459.0000;6686.2260
2460.0000;6659.8010
2461.0000;6657.1220
2462.0000;6668.7410
2463.0000;6669.1760
2464.0000;6663.2200
2465.0000;6659.0980
2466.0000;6657.2460
2467.0000;6653.7470
2468.0000;6650.7180
2469.0000;6654.8240
2470.0000;6665.1610
2471.0000;6664.4820
2472.0000;6647.8440
2473.0000;6634.9020
2474.0000;6635.3730
2475.0000;6631.4730
2476.0000;6612.4320
2477.0000;6599.9870
2478.0000;6607.7190
2479.0000;6623.4280
2480.0000;6632.6290
2481.0000;6636.6720
2482.0000;6635.0480
2483.0000;6631.7450
2484.0000;6636.7670
2485.0000;6648.6780
2486.0000;6668.1020
2487.0000;6684.5420
2488.0000;6682.1440
2489.0000;6665.3280
2490.0000;6666.9150
2491.0000;6682.9600
2492.0000;6679.4420
2493.0000;6653.1000
2494.0000;6630.2050
2495.0000;6620.4600
2496.0000;6609.5280
2497.0000;6595.5490
2498.0000;6595.0340
2499.0000;6614.0490
2500.0000;6633.4100
2501.0000;6638.0020
2502.0000;6634.7370
2503.0000;6629.1060
2504.0000;6625.7940
2505.0000;6631.4240
2506.0000;6645.5390
2507.0000;6669.2650
2508.0000;6688.4490
2509.0000;6690.8840
2510.0000;6676.9670
2511.0000;6664.2060
2512.0000;6651.2420
2513.0000;6634.7220
2514.0000;6621.7130
2515.0000;6617.7240
2516.0000;6623.2040
2517.0000;6621.5330
2518.0000;6612.0190
2519.0000;6601.9890
2520.0000;6595.0650
2521.0000;6592.2280
2522.0000;6595.1770
2523.0000;6602.3470
2524.0000;6611.7570
2525.0000;6622.5990
2526.0000;6632.4110
2527.0000;6633.0840
2528.0000;6619.8120
2529.0000;6607.5990
2530.0000;6611.4260
2531.0000;6611.9570
2532.0000;6590.2950
2533.0000;6567.3410
2534.0000;6561.5990
2535.0000;6565.0530
2536.0000;6559.0120
2537.0000;6551.0500
2538.0000;6545.6270
2539.0000;6540.7050
2540.0000;6526.9140
2541.0000;6513.4580
2542.0000;6511.2780
2543.0000;6519.7860
2544.0000;6525.2550
2545.0000;6525.0620
2546.0000;6517.3960
2547.0000;6504.7870
2548.0000;6500.9390
2549.0000;6508.0700
2550.0000;6511.3490
2551.0000;6507.8260
2552.0000;6507.1650
2553.0000;6511.9470
2554.0000;6517.6500
2555.0000;6522.2340
2556.0000;6525.4440
2557.0000;6526.7940
2558.0000;6532.1660
2559.0000;6545.0380
2560.0000;6555.9440
2561.0000;6558.6550
2562.0000;6554.5090
2563.0000;6548.4090
2564.0000;6536.4610
2565.0000;6516.3360
2566.0000;6499.9750
2567.0000;6493.5630
2568.0000;6498.0740
2569.0000;6502.3240
2570.0000;6509.2350
2571.0000;6515.9380
2572.0000;6520.9780
2573.0000;6524.5000
2574.0000;6527.5680
2575.0000;6540.6740
2576.0000;6551.5720
2577.0000;6539.4740
2578.0000;6513.9020
2579.0000;6511.6510
2580.0000;6527.5490
2581.0000;6523.1790
2582.0000;6501.6110
2583.0000;6493.3690
2584.0000;6501.3890
2585.0000;6503.9870
2586.0000;6499.5490
2587.0000;6506.1070
2588.0000;6523.1070
2589.0000;6522.2910
2590.0000;6498.2870
2591.0000;6483.5130
2592.0000;6492.1610
2593.0000;6503.3330
2594.0000;6507.5760
2595.0000;6505.8060
2596.0000;6497.1720
2597.0000;6489.1200
2598.0000;6487.7590
2599.0000;6479.5360
2600.0000;6454.9490
2601.0000;6439.6790
2602.0000;6452.1530
2603.0000;6465.1760
2604.0000;6451.1620
2605.0000;6436.5830
2606.0000;6443.9220
2607.0000;6455.7050
2608.0000;6454.1890
2609.0000;6447.0770
2610.0000;6441.5490
2611.0000;6438.6160
2612.0000;6438.2390
2613.0000;6443.9420
2614.0000;6459.3620
2615.0000;6470.5820
2616.0000;6459.5130
2617.0000;6437.8160
2618.0000;6433.0590
2619.0000;6434.7660
2620.0000;6415.2140
2621.0000;6393.1310
2622.0000;6396.6570
2623.0000;6421.7900
2624.0000;6443.4730
2625.0000;6458.1360
2626.0000;6470.6640
2627.0000;6474.1860
2628.0000;6469.8310
2629.0000;6458.2600
2630.0000;6447.9420
2631.0000;6443.3660
2632.0000;6449.1140
2633.0000;6461.0030
2634.0000;6455.0440
2635.0000;6431.2340
2636.0000;6410.5470
2637.0000;6401.2190
2638.0000;6396.3290
2639.0000;6396.1430
2640.0000;6389.1540
2641.0000;6377.2820
2642.0000;6382.7700
2643.0000;6409.0020
2644.0000;6424.8210
2645.0000;6420.0020
2646.0000;6414.4170
2647.0000;6414.1280
2648.0000;6409.9570
2649.0000;6401.0930
2650.0000;6394.6680
2651.0000;6393.9900
2652.0000;6388.8390
2653.0000;6375.9950
2654.0000;6378.6010
2655.0000;6405.5490
2656.0000;6422.6470
2657.0000;6412.3810
2658.0000;6399.9980
2659.0000;6400.6100
2660.0000;6408.7840
2661.0000;6422.4530
2662.0000;6432.0330
2663.0000;6429.8810
2664.0000;6420.3180
2665.0000;6408.3220
2666.0000;6397.8640
2667.0000;6392.6360
2668.0000;6394.5830
2669.0000;6404.9560
2670.0000;6400.8130
2671.0000;6362.4770
2672.0000;6328.3700
2673.0000;6328.5290
2674.0000;6341.9090
2675.0000;6346.4600
2676.0000;6348.0360
2677.0000;6345.2120
2678.0000;6342.5850
2679.0000;6344.6720
2680.0000;6352.0460
2681.0000;6367.3390
2682.0000;6372.9070
2683.0000;6354.2640
2684.0000;6329.1460
2685.0000;6318.7860
2686.0000;6314.5310
2687.0000;6304.8730
2688.0000;6298.0220
2689.0000;6293.3890
2690.0000;6294.7800
2691.0000;6301.8230
2692.0000;6309.5110
2693.0000;6310.2660
2694.0000;6307.4260
2695.0000;6305.6010
2696.0000;6305.8580
2697.0000;6309.7480
2698.0000;6317.4250
2699.0000;6331.9630
2700.0000;6336.7810
2701.0000;6314.3550
2702.0000;6291.2660
2703.0000;6304.4830
2704.0000;6327.3120
2705.0000;6325.0760
2706.0000;6310.5260
2707.0000;6297.0100
2708.0000;6290.1700
2709.0000;6298.4840
2710.0000;6310.1550
2711.0000;6304.3930
2712.0000;6295.9890
2713.0000;6302.7110
2714.0000;6313.2270
2715.0000;6314.7280
2716.0000;6312.9350
2717.0000;6315.9630
2718.0000;6319.3270
2719.0000;6318.8130
2720.0000;6320.8360
2721.0000;6338.3070
2722.0000;6347.3160
2723.0000;6324.8300
2724.0000;6289.0570
2725.0000;6265.6760
2726.0000;6251.8450
2727.0000;6232.5460
2728.0000;6224.4000
2729.0000;6230.7280
2730.0000;6241.1150
2731.0000;6233.2470
2732.0000;6223.2280
2733.0000;6225.9670
2734.0000;6237.7450
2735.0000;6255.9430
2736.0000;6267.4650
2737.0000;6258.5750
2738.0000;6244.9420
2739.0000;6249.9630
2740.0000;6253.1060
2741.0000;6233.9510
2742.0000;6213.7340
2743.0000;6208.7650
2744.0000;6214.4130
2745.0000;6219.5470
2746.0000;6233.7220
2747.0000;6262.8970
2748.0000;6282.5370
2749.0000;6275.0260
2750.0000;6259.7670
2751.0000;6261.1610
2752.0000;6263.4820
2753.0000;6256.7220
2754.0000;6252.0410
2755.0000;6257.9850
2756.0000;6254.1310
2757.0000;6225.1730
2758.0000;6199.7450
2759.0000;6200.1380
2760.0000;6206.0820
2761.0000;6201.7080
2762.0000;6193.3580
2763.0000;6182.6500
2764.0000;6174.6890
2765.0000;6173.3090
2766.0000;6177.7810
2767.0000;6185.9630
2768.0000;6187.2600
2769.0000;6175.2210
2770.0000;6167.0120
2771.0000;6172.2190
2772.0000;6173.1250
2773.0000;6162.2290
2774.0000;6151.4040
2775.0000;6146.9080
2776.0000;6144.9220
2777.0000;6144.4120
2778.0000;6142.1270
2779.0000;6137.5480
2780.0000;6142.3930
2781.0000;6158.2710
2782.0000;6172.0990
2783.0000;6176.1160
2784.0000;6169.9550
2785.0000;6156.1620
2786.0000;6160.5720
2787.0000;6181.8850
2788.0000;6170.3360
2789.0000;6125.5070
2790.0000;6115.0830
2791.0000;6144.0730
2792.0000;6151.9820
2793.0000;6132.4490
2794.0000;6116.2430
2795.0000;6109.0420
2796.0000;6104.7330
2797.0000;6106.6860
2798.0000;6115.1500
2799.0000;6125.4340
2800.0000;6123.1280
2801.0000;6113.7310
2802.0000;6119.3080
2803.0000;6133.3540
2804.0000;6135.7880
2805.0000;6128.9430
2806.0000;6124.1730
2807.0000;6123.3040
2808.0000;6130.5710
2809.0000;6138.6720
2810.0000;6133.9190
2811.0000;6124.0170
2812.0000;6121.7520
2813.0000;6125.5020
2814.0000;6129.5430
2815.0000;6136.3320
2816.0000;6143.3480
2817.0000;6158.2090
2818.0000;6194.1150
2819.0000;6219.2830
2820.0000;6207.9240
2821.0000;6185.2440
2822.0000;6184.2970
2823.0000;6188.6450
2824.0000;6189.6470
2825.0000;6185.3660
2826.0000;6173.0540
2827.0000;6159.0530
2828.0000;6148.5030
2829.0000;6145.5130
2830.0000;6151.6890
2831.0000;6150.7360
2832.0000;6135.0750
2833.0000;6125.5060
2834.0000;6130.2360
2835.0000;6134.2120
2836.0000;6132.8060
2837.0000;6134.2620
2838.0000;6137.9920
2839.0000;6131.4560
2840.0000;6114.9410
2841.0000;6104.8370
2842.0000;6104.1310
2843.0000;6095.3340
2844.0000;6082.8670
2845.0000;6080.2320
2846.0000;6090.1700
2847.0000;6104.8680
2848.0000;6120.5980
2849.0000;6132.1200
2850.0000;6136.2780
2851.0000;6142.2890
2852.0000;6140.3220
2853.0000;6120.8520
2854.0000;6099.1520
2855.0000;6101.5910
2856.0000;6114.6000
2857.0000;6113.9610
2858.0000;6103.8750
2859.0000;6083.9100
2860.0000;6073.1420
2861.0000;6089.9170
2862.0000;6105.4510
2863.0000;6092.4690
2864.0000;6081.5340
2865.0000;6094.6760
2866.0000;6105.2250
2867.0000;6097.8430
2868.0000;6086.4850
2869.0000;6079.0210
2870.0000;6071.6060
2871.0000;6065.3880
2872.0000;6061.8260
2873.0000;6062.7070
2874.0000;6073.2420
2875.0000;6089.4030
2876.0000;6087.9500
2877.0000;6066.4750
2878.0000;6047.6710
2879.0000;6038.5910
2880.0000;6035.9010
2881.0000;6039.5910
2882.0000;6034.8860
2883.0000;6029.4400
2884.0000;6039.0700
2885.0000;6052.7930
2886.0000;6047.2260
2887.0000;6036.2740
2888.0000;6043.9220
2889.0000;6059.2710
2890.0000;6071.1080
2891.0000;6076.9500
2892.0000;6077.2940
2893.0000;6070.7500
2894.0000;6060.3510
2895.0000;6050.7900
2896.0000;6046.6240
2897.0000;6051.9410
2898.0000;6066.8220
2899.0000;6076.0540
2900.0000;6071.8310
2901.0000;6063.9360
2902.0000;6057.4140
2903.0000;6057.8290
2904.0000;6065.1810
2905.0000;6064.5160
2906.0000;6055.8400
2907.0000;6053.4180
2908.0000;6054.3830
2909.0000;6040.9750
2910.0000;6019.7900
2911.0000;6003.7400
2912.0000;6000.8510
2913.0000;6011.1010
2914.0000;6028.1510
2915.0000;6035.0150
2916.0000;6033.1990
2917.0000;6027.8770
2918.0000;6023.6400
2919.0000;6028.2840
2920.0000;6035.9640
2921.0000;6042.4350
2922.0000;6036.2620
2923.0000;6012.0010
2924.0000;5995.1660
2925.0000;6000.2290
2926.0000;6006.1110
2927.0000;6006.3090
2928.0000;6007.4520
2929.0000;6010.7920
2930.0000;6022.4320
2931.0000;6033.8290
2932.0000;6017.0590
2933.0000;5980.5030
2934.0000;5957.4540
2935.0000;5955.0550
2936.0000;5964.0530
2937.0000;5979.1560
2938.0000;5979.6720
2939.0000;5970.0170
2940.0000;5958.4240
2941.0000;5948.1940
2942.0000;5944.7720
2943.0000;5943.9410
2944.0000;5939.8340
2945.0000;5940.3460
2946.0000;5947.8080
2947.0000;5960.3460
2948.0000;5974.2730
2949.0000;5977.2790
2950.0000;5965.8040
2951.0000;5956.1490
2952.0000;5952.6120
2953.0000;5949.7640
2954.0000;5949.2210
2955.0000;5951.8630
2956.0000;5954.8180
2957.0000;5950.8860
2958.0000;5942.8080
2959.0000;5936.5340
2960.0000;5934.7340
2961.0000;5939.8720
2962.0000;5942.3660
2963.0000;5930.4370
2964.0000;5919.0110
2965.0000;5920.2750
2966.0000;5919.7440
2967.0000;5910.1820
2968.0000;5909.2200
2969.0000;5922.6670
2970.0000;5941.0140
2971.0000;5954.5970
2972.0000;5946.1490
2973.0000;5920.9750
2974.0000;5924.9770
2975.0000;5947.1210
2976.0000;5934.0900
2977.0000;5903.4010
2978.0000;5894.3080
2979.0000;5899.3730
2980.0000;5897.8720
2981.0000;5895.6360
2982.0000;5892.9610
2983.0000;5886.8130
2984.0000;5874.7630
2985.0000;5865.6380
2986.0000;5864.8190
2987.0000;5871.0320
2988.0000;5881.8910
2989.0000;5885.5320
2990.0000;5880.6350
2991.0000;5888.8460
2992.0000;5905.7890
2993.0000;5909.9830
2994.0000;5901.4900
2995.0000;5897.1630
2996.0000;5894.5220
2997.0000;5889.8350
2998.0000;5884.9140
2999.0000;5876.9530
3000.0000;5877.8340
3001.0000;5895.5920
3002.0000;5909.3090
3003.0000;5904.0810
3004.0000;5896.5920
3005.0000;5895.0190
3006.0000;5896.8490
3007.0000;5901.1800
3008.0000;5903.1700
3009.0000;5899.6230
3010.0000;5886.6680
3011.0000;5870.6190
3012.0000;5864.0890
3013.0000;5866.8740
3014.0000;5868.3780
3015.0000;5868.8480
3016.0000;5864.3700
3017.0000;5859.8260
3018.0000;5859.4730
3019.0000;5860.3150
3020.0000;5860.2500
3021.0000;5853.5940
3022.0000;5840.2420
3023.0000;5838.9210
3024.0000;5851.5940
3025.0000;5859.4580
3026.0000;5855.7500
3027.0000;5836.8700
3028.0000;5810.9170
3029.0000;5795.4600
3030.0000;5794.2640
3031.0000;5799.6810
3032.0000;5807.8150
3033.0000;5806.1490
3034.0000;5805.8580
3035.0000;5813.7300
3036.0000;5816.1650
3037.0000;5807.8700
3038.0000;5799.3270
3039.0000;5795.9590
3040.0000;5803.1460
3041.0000;5814.4350
3042.0000;5805.8000
3043.0000;5781.5540
3044.0000;5763.0630
3045.0000;5752.2370
3046.0000;5744.0670
3047.0000;5739.8160
3048.0000;5731.0420
3049.0000;5729.4360
3050.0000;5739.0680
3051.0000;5752.1040
3052.0000;5761.6760
3053.0000;5756.4090
3054.0000;5738.0090
3055.0000;5736.6160
3056.0000;5751.0870
3057.0000;5753.1840
3058.0000;5743.7640
3059.0000;5730.4570
3060.0000;5722.4710
3061.0000;5730.3690
3062.0000;5742.5260
3063.0000;5744.4510
3064.0000;5742.7140
3065.0000;5740.6880
3066.0000;5735.7900
3067.0000;5728.6000
3068.0000;5718.3300
3069.0000;5709.8640
3070.0000;5715.5550
3071.0000;5729.0600
3072.0000;5726.7130
3073.0000;5715.9000
3074.0000;5715.7280
3075.0000;5714.8740
3076.0000;5701.6270
3077.0000;5694.6660
3078.0000;5704.6320
3079.0000;5719.6410
3080.0000;5731.2220
3081.0000;5736.6210
3082.0000;5733.5590
3083.0000;5731.1510
3084.0000;5726.7410
3085.0000;5709.0920
3086.0000;5693.4010
3087.0000;5702.9050
3088.0000;5716.8210
3089.0000;5702.8140
3090.0000;5698.9310
3091.0000;5729.0540
3092.0000;5750.5730
3093.0000;5744.4740
3094.0000;5739.7720
3095.0000;5741.6420
3096.0000;5745.7340
3097.0000;5745.0100
3098.0000;5721.5440
3099.0000;5694.5800
3100.0000;5697.1290
3101.0000;5708.6420
3102.0000;5697.3540
3103.0000;5693.2960
3104.0000;5712.0950
3105.0000;5730.5840
3106.0000;5737.0980
3107.0000;5741.0400
3108.0000;5740.4940
3109.0000;5732.6880
3110.0000;5721.4460
3111.0000;5716.4420
3112.0000;5717.2640
3113.0000;5720.5970
3114.0000;5715.0250
3115.0000;5689.4010
3116.0000;5669.5580
3117.0000;5671.8370
3118.0000;5677.1880
3119.0000;5678.9750
3120.0000;5675.4260
3121.0000;5666.6110
3122.0000;5658.8880
3123.0000;5650.5150
3124.0000;5632.9840
3125.0000;5618.4430
3126.0000;5616.0050
3127.0000;5618.6940
3128.0000;5618.6780
3129.0000;5619.1130
3130.0000;5619.1550
3131.0000;5612.6010
3132.0000;5603.1750
3133.0000;5608.9270
3134.0000;5621.8930
3135.0000;5616.5100
3136.0000;5607.0490
3137.0000;5616.3000
3138.0000;5619.4700
3139.0000;5599.6100
3140.0000;5594.7070
3141.0000;5618.2020
3142.0000;5623.6250
3143.0000;5603.1150
3144.0000;5585.6690
3145.0000;5577.3740
3146.0000;5574.7810
3147.0000;5577.2240
3148.0000;5574.6310
3149.0000;5572.3480
3150.0000;5572.8190
3151.0000;5567.8960
3152.0000;5556.0380
3153.0000;5557.2230
3154.0000;5571.4310
3155.0000;5569.4680
3156.0000;5556.2570
3157.0000;5553.8400
3158.0000;5558.5400
3159.0000;5560.6670
3160.0000;5567.4420
3161.0000;5581.5680
3162.0000;5589.7750
3163.0000;5585.7340
3164.0000;5575.5770
3165.0000;5565.2130
3166.0000;5565.6700
3167.0000;5574.5090
3168.0000;5576.7380
3169.0000;5574.0170
3170.0000;5568.1000
3171.0000;5567.0170
3172.0000;5576.5530
3173.0000;5582.0390
3174.0000;5577.4190
3175.0000;5569.3910
3176.0000;5562.1430
3177.0000;5563.8420
3178.0000;5566.7720
3179.0000;5549.5190
3180.0000;5535.0120
3181.0000;5543.5540
3182.0000;5559.1310
3183.0000;5568.6760
3184.0000;5571.1970
3185.0000;5565.2150
3186.0000;5559.3240
3187.0000;5555.0830
3188.0000;5551.6620
3189.0000;5547.9790
3190.0000;5539.0070
3191.0000;5532.5290
3192.0000;5533.0470
3193.0000;5540.7750
3194.0000;5551.9970
3195.0000;5550.4810
3196.0000;5534.8190
3197.0000;5521.5070
3198.0000;5513.3390
3199.0000;5505.0920
3200.0000;5503.6220
3201.0000;5509.6870
3202.0000;5512.4160
3203.0000;5505.1360
3204.0000;5506.3590
3205.0000;5517.5630
3206.0000;5519.4390
3207.0000;5511.0880
3208.0000;5500.1390
3209.0000;5494.4040
3210.0000;5502.3070
3211.0000;5513.6610
3212.0000;5517.7150
3213.0000;5519.9940
3214.0000;5519.2780
3215.0000;5504.0360
3216.0000;5484.1090
3217.0000;5487.3150
3218.0000;5500.0920
3219.0000;5491.5180
3220.0000;5476.2560
3221.0000;5465.5280
3222.0000;5454.8440
3223.0000;5444.9010
3224.0000;5439.0100
3225.0000;5435.6750
3226.0000;5419.3910
3227.0000;5402.3910
3228.0000;5395.1270
3229.0000;5406.6930
3230.0000;5437.0330
3231.0000;5453.8650
3232.0000;5441.9290
3233.0000;5433.8130
3234.0000;5431.7940
3235.0000;5418.9300
3236.0000;5405.8690
3237.0000;5408.7770
3238.0000;5413.7630
3239.0000;5404.9390
3240.0000;5403.3900
3241.0000;5415.2320
3242.0000;5413.7150
3243.0000;5403.3860
3244.0000;5425.8740
3245.0000;5453.7500
3246.0000;5435.4590
3247.0000;5406.8410
3248.0000;5402.9230
3249.0000;5407.5470
3250.0000;5412.3650
3251.0000;5399.2530
3252.0000;5375.2170
3253.0000;5374.6050
3254.0000;5387.1310
3255.0000;5384.4380
3256.0000;5379.1100
3257.0000;5378.8430
3258.0000;5388.4610
3259.0000;5407.8890
3260.0000;5427.1050
3261.0000;5437.1140
3262.0000;5437.3010
3263.0000;5426.6190
3264.0000;5414.3310
3265.0000;5404.5980
3266.0000;5402.1900
3267.0000;5398.3050
3268.0000;5392.6550
3269.0000;5394.8020
3270.0000;5398.2070
3271.0000;5382.2050
3272.0000;5361.8280
3273.0000;5354.2560
3274.0000;5356.0680
3275.0000;5363.3320
3276.0000;5370.5170
3277.0000;5370.7460
3278.0000;5352.8440
3279.0000;5332.1000
3280.0000;5338.1710
3281.0000;5351.0210
3282.0000;5347.5470
3283.0000;5343.1410
3284.0000;5342.6840
3285.0000;5341.8630
3286.0000;5340.3600
3287.0000;5337.0360
3288.0000;5334.5070
3289.0000;5334.8090
3290.0000;5339.6960
3291.0000;5347.9140
3292.0000;5344.2400
3293.0000;5327.0810
3294.0000;5312.8380
3295.0000;5307.0420
3296.0000;5306.4690
3297.0000;5309.0290
3298.0000;5307.5470
3299.0000;5299.0980
3300.0000;5284.5610
3301.0000;5274.3560
3302.0000;5273.8010
3303.0000;5277.3080
3304.0000;5285.9610
3305.0000;5295.8980
3306.0000;5304.3270
3307.0000;5308.0550
3308.0000;5298.8410
3309.0000;5278.8880
3310.0000;5265.0210
3311.0000;5262.1000
3312.0000;5266.6150
3313.0000;5270.2080
3314.0000;5261.3640
3315.0000;5251.7280
3316.0000;5245.9080
3317.0000;5237.5380
3318.0000;5229.2760
3319.0000;5220.7380
3320.0000;5222.0520
3321.0000;5239.1780
3322.0000;5247.3310
3323.0000;5234.0780
3324.0000;5234.6990
3325.0000;5247.9890
3326.0000;5243.9700
3327.0000;5233.5040
3328.0000;5236.0130
3329.0000;5242.8340
3330.0000;5248.4330
3331.0000;5258.1340
3332.0000;5267.1000
3333.0000;5263.5990
3334.0000;5250.4770
3335.0000;5240.9440
3336.0000;5235.6240
3337.0000;5234.8250
3338.0000;5236.8970
3339.0000;5238.9970
3340.0000;5230.7120
3341.0000;5226.7310
3342.0000;5259.6880
3343.0000;5285.5620
3344.0000;5265.1010
3345.0000;5251.7900
3346.0000;5262.4360
3347.0000;5257.6370
3348.0000;5240.7760
3349.0000;5230.7570
3350.0000;5225.6120
3351.0000;5220.2450
3352.0000;5223.6040
3353.0000;5235.2360
3354.0000;5239.5830
3355.0000;5233.2680
3356.0000;5220.3320
3357.0000;5212.0500
3358.0000;5219.9820
3359.0000;5234.2110
3360.0000;5246.5540
3361.0000;5258.3520
3362.0000;5261.3660
3363.0000;5247.4720
3364.0000;5230.3750
3365.0000;5230.7670
3366.0000;5233.0860
3367.0000;5229.3540
3368.0000;5218.3610
3369.0000;5205.9610
3370.0000;5202.2260
3371.0000;5209.6920
3372.0000;5224.1560
3373.0000;5240.0620
3374.0000;5248.9290
3375.0000;5236.0230
3376.0000;5212.3060
3377.0000;5221.1020
3378.0000;5235.2430
3379.0000;5221.1170
3380.0000;5209.8550
3381.0000;5214.2700
3382.0000;5213.8000
3383.0000;5211.4880
3384.0000;5221.9050
3385.0000;5229.3740
3386.0000;5218.7670
3387.0000;5206.2350
3388.0000;5199.4230
3389.0000;5188.3710
3390.0000;5181.9490
3391.0000;5195.7990
3392.0000;5204.1830
3393.0000;5182.0680
3394.0000;5176.6570
3395.0000;5196.7630
3396.0000;5190.9110
3397.0000;5165.1580
3398.0000;5145.4210
3399.0000;5139.8350
3400.0000;5152.4900
3401.0000;5169.9790
3402.0000;5182.4510
3403.0000;5191.5840
3404.0000;5190.3350
3405.0000;5176.7550
3406.0000;5174.9220
3407.0000;5199.3040
3408.0000;5204.3750
3409.0000;5181.9050
3410.0000;5154.5660
3411.0000;5135.6920
3412.0000;5136.4900
3413.0000;5141.5850
3414.0000;5138.8020
3415.0000;5131.2230
3416.0000;5124.4030
3417.0000;5130.7830
3418.0000;5137.2690
3419.0000;5128.5050
3420.0000;5120.9060
3421.0000;5122.0300
3422.0000;5127.4810
3423.0000;5134.7300
3424.0000;5139.4260
3425.0000;5138.7790
3426.0000;5132.7310
3427.0000;5131.0420
3428.0000;5136.5380
3429.0000;5143.1430
3430.0000;5148.3690
3431.0000;5149.8530
3432.0000;5152.5360
3433.0000;5158.8200
3434.0000;5161.3540
3435.0000;5160.3730
3436.0000;5166.8960
3437.0000;5165.0000
3438.0000;5142.0170
3439.0000;5129.9630
3440.0000;5139.7970
3441.0000;5144.6650
3442.0000;5142.3150
3443.0000;5133.4690
3444.0000;5128.8680
3445.0000;5136.0800
3446.0000;5141.1870
3447.0000;5136.3460
3448.0000;5113.3680
3449.0000;5092.3270
3450.0000;5096.6580
3451.0000;5112.5970
3452.0000;5125.5560
3453.0000;5116.1670
3454.0000;5094.2000
3455.0000;5093.5410
3456.0000;5098.3810
3457.0000;5095.1100
3458.0000;5092.6140
3459.0000;5089.6550
3460.0000;5073.3930
3461.0000;5061.0130
3462.0000;5073.3530
3463.0000;5077.7880
3464.0000;5060.8530
3465.0000;5045.5920
3466.0000;5041.6000
3467.0000;5051.9370
3468.0000;5062.1660
3469.0000;5058.0320
3470.0000;5065.1660
3471.0000;5082.7470
3472.0000;5089.6630
3473.0000;5089.3970
3474.0000;5093.6570
3475.0000;5093.5090
3476.0000;5087.7130
3477.0000;5084.4720
3478.0000;5082.8620
3479.0000;5077.6370
3480.0000;5070.5520
3481.0000;5062.7630
3482.0000;5054.9590
3483.0000;5048.5810
3484.0000;5038.9240
3485.0000;5033.1980
3486.0000;5034.9150
3487.0000;5029.7410
3488.0000;5017.7680
3489.0000;5017.7210
3490.0000;5033.4430
3491.0000;5060.5860
3492.0000;5081.5260
3493.0000;5084.2870
3494.0000;5080.3840
3495.0000;5070.3000
3496.0000;5059.0730
3497.0000;5044.5810
3498.0000;5027.3280
3499.0000;5022.1020
3500.0000;5030.0230
3501.0000;5032.4540
3502.0000;5025.9090
3503.0000;5008.4000
3504.0000;5000.4130
3505.0000;5009.4580
3506.0000;5016.8130
3507.0000;5016.7630
3508.0000;5004.3810
3509.0000;4994.9550
3510.0000;4997.1230
3511.0000;4995.8550
3512.0000;4989.2760
3513.0000;4973.8050
3514.0000;4972.5160
3515.0000;4996.5690
3516.0000;5009.2000
3517.0000;5003.3180
3518.0000;5000.9000
3519.0000;4991.0290
3520.0000;4970.3200
3521.0000;4963.0910
3522.0000;4975.9210
3523.0000;4992.5720
3524.0000;5000.3000
3525.0000;4985.8060
3526.0000;4975.8350
3527.0000;4981.4950
3528.0000;4988.0750
3529.0000;4995.2790
3530.0000;5003.7020
3531.0000;5006.8490
3532.0000;5002.6670
3533.0000;4996.2680
3534.0000;4992.5200
3535.0000;5000.3100
3536.0000;4994.5460
3537.0000;4964.5940
3538.0000;4956.4420
3539.0000;4970.3000
3540.0000;4971.3480
3541.0000;4969.7920
3542.0000;4970.2950
3543.0000;4971.8910
3544.0000;4973.6560
3545.0000;4975.2360
3546.0000;4969.9070
3547.0000;4954.9800
3548.0000;4944.7490
3549.0000;4940.9380
3550.0000;4918.3270
3551.0000;4911.3240
3552.0000;4947.1510
3553.0000;4959.0610
3554.0000;4933.3990
3555.0000;4925.8350
3556.0000;4925.5500
3557.0000;4916.3790
3558.0000;4913.3160
3559.0000;4916.7260
3560.0000;4905.0440
3561.0000;4890.4670
3562.0000;4889.0210
3563.0000;4893.5370
3564.0000;4899.3560
3565.0000;4904.5330
3566.0000;4907.2280
3567.0000;4908.1000
3568.0000;4905.8730
3569.0000;4902.9780
3570.0000;4911.1490
3571.0000;4920.1780
3572.0000;4913.6130
3573.0000;4899.9670
3574.0000;4886.9640
3575.0000;4874.3710
3576.0000;4869.9460
3577.0000;4877.5450
3578.0000;4878.4400
3579.0000;4865.4350
3580.0000;4865.8760
3581.0000;4871.8750
3582.0000;4861.8650
3583.0000;4860.0740
3584.0000;4873.3320
3585.0000;4863.3230
3586.0000;4845.8710
3587.0000;4860.3830
3588.0000;4860.5970
3589.0000;4831.1990
3590.0000;4825.7250
3591.0000;4839.5300
3592.0000;4845.6400
3593.0000;4841.3630
3594.0000;4828.7850
3595.0000;4836.7390
3596.0000;4854.6000
3597.0000;4854.8030
3598.0000;4856.6460
3599.0000;4868.1010
3600.0000;4885.6870
3601.0000;4899.2310
3602.0000;4899.0880
3603.0000;4898.4810
3604.0000;4901.7900
3605.0000;4891.2990
3606.0000;4877.8300
3607.0000;4879.8600
3608.0000;4885.8540
3609.0000;4889.2500
3610.0000;4888.0410
3611.0000;4884.1180
3612.0000;4882.6770
3613.0000;4876.9550
3614.0000;4865.5260
3615.0000;4844.9370
3616.0000;4832.6420
3617.0000;4841.6120
3618.0000;4859.8790
3619.0000;4873.0980
3620.0000;4862.8250
3621.0000;4851.3910
3622.0000;4864.8030
3623.0000;4870.1040
3624.0000;4860.5030
3625.0000;4848.7120
3626.0000;4835.0780
3627.0000;4822.8470
3628.0000;4825.4180
3629.0000;4838.6000
3630.0000;4838.0790
3631.0000;4833.0870
3632.0000;4831.9780
3633.0000;4848.2420
3634.0000;4869.1110
3635.0000;4868.6230
3636.0000;4860.1040
3637.0000;4854.9840
3638.0000;4849.3460
3639.0000;4849.4240
3640.0000;4861.0830
3641.0000;4867.7070
3642.0000;4859.0720
3643.0000;4834.6870
3644.0000;4808.0170
3645.0000;4796.3050
3646.0000;4803.2830
3647.0000;4822.7190
3648.0000;4828.4340
3649.0000;4827.9830
3650.0000;4832.3420
3651.0000;4826.9760
3652.0000;4815.9820
3653.0000;4820.7910
3654.0000;4821.5530
3655.0000;4805.3240
3656.0000;4804.6660
3657.0000;4810.0910
3658.0000;4783.7380
3659.0000;4769.7680
3660.0000;4787.3680
3661.0000;4789.6710
3662.0000;4784.4380
3663.0000;4794.8640
3664.0000;4779.3240
3665.0000;4742.2740
3666.0000;4754.6920
3667.0000;4784.1610
3668.0000;4781.6260
3669.0000;4766.3040
3670.0000;4752.6590
3671.0000;4766.8330
3672.0000;4785.6710
3673.0000;4785.6430
3674.0000;4764.9630
3675.0000;4738.8510
3676.0000;4734.8570
3677.0000;4746.2500
3678.0000;4762.9090
3679.0000;4777.8950
3680.0000;4782.6620
3681.0000;4774.8200
3682.0000;4763.9510
3683.0000;4758.6930
3684.0000;4765.5790
3685.0000;4768.2790
3686.0000;4752.3690
3687.0000;4747.1850
3688.0000;4754.5760
3689.0000;4755.1430
3690.0000;4765.1750
3691.0000;4784.1540
3692.0000;4773.3620
3693.0000;4747.1820
3694.0000;4740.5700
3695.0000;4741.0720
3696.0000;4743.6370
3697.0000;4739.2390
3698.0000;4736.5300
3699.0000;4742.3450
3700.0000;4747.0880
3701.0000;4750.8980
3702.0000;4760.8070
3703.0000;4768.2540
3704.0000;4770.9420
3705.0000;4793.8490
3706.0000;4801.8870
3707.0000;4753.3170
3708.0000;4726.7200
3709.0000;4741.9950
3710.0000;4744.2710
3711.0000;4747.4990
3712.0000;4757.1100
3713.0000;4768.2790
3714.0000;4770.4530
3715.0000;4753.6670
3716.0000;4739.9920
3717.0000;4741.8450
3718.0000;4743.5850
3719.0000;4742.7840
3720.0000;4736.1930
3721.0000;4726.7100
3722.0000;4724.3020
3723.0000;4743.1260
3724.0000;4765.6780
3725.0000;4775.5860
3726.0000;4780.4160
3727.0000;4770.2510
3728.0000;4741.9030
3729.0000;4740.4910
3730.0000;4765.3130
3731.0000;4750.0460
3732.0000;4741.0270
3733.0000;4765.7620
3734.0000;4750.1730
3735.0000;4711.8260
3736.0000;4702.2110
3737.0000;4699.2610
3738.0000;4696.1880
3739.0000;4691.7470
3740.0000;4692.1310
3741.0000;4699.1720
3742.0000;4700.7260
3743.0000;4701.3790
3744.0000;4716.0610
3745.0000;4722.7410
3746.0000;4713.0020
3747.0000;4701.9020
3748.0000;4691.5780
3749.0000;4685.3750
3750.0000;4678.5660
3751.0000;4676.7240
3752.0000;4686.7790
3753.0000;4694.8530
3754.0000;4694.8740
3755.0000;4705.9340
3756.0000;4708.9820
3757.0000;4690.9460
3758.0000;4698.7870
3759.0000;4727.1310
3760.0000;4739.7340
3761.0000;4735.8570
3762.0000;4720.8250
3763.0000;4718.5860
3764.0000;4721.9770
3765.0000;4720.1070
3766.0000;4713.9300
3767.0000;4710.5150
3768.0000;4721.3700
3769.0000;4724.1740
3770.0000;4717.0900
3771.0000;4742.2720
3772.0000;4759.7970
3773.0000;4736.4180
3774.0000;4732.1810
3775.0000;4744.9290
3776.0000;4748.1000
3777.0000;4741.4900
3778.0000;4730.2520
3779.0000;4733.2230
3780.0000;4739.8080
3781.0000;4740.1230
3782.0000;4748.2370
3783.0000;4753.6150
3784.0000;4740.8710
3785.0000;4731.5060
3786.0000;4734.1060
3787.0000;4740.1010
3788.0000;4754.1150
3789.0000;4769.6780
3790.0000;4760.0480
3791.0000;4741.7950
3792.0000;4744.2290
3793.0000;4748.3230
3794.0000;4751.0890
3795.0000;4756.9940
3796.0000;4750.5460
3797.0000;4733.0160
3798.0000;4739.2750
3799.0000;4748.3760
3800.0000;4735.3470
3801.0000;4708.6840
3802.0000;4688.8750
3803.0000;4700.6900
3804.0000;4715.7120
3805.0000;4716.6000
3806.0000;4701.2620
3807.0000;4696.7910
3808.0000;4716.3770
3809.0000;4705.3750
3810.0000;4685.8910
3811.0000;4693.2560
3812.0000;4693.8340
3813.0000;4686.2430
3814.0000;4682.9880
3815.0000;4697.1590
3816.0000;4717.1450
3817.0000;4683.5110
3818.0000;4651.0490
3819.0000;4666.9310
3820.0000;4668.0830
3821.0000;4661.8870
3822.0000;4668.8690
3823.0000;4663.4850
3824.0000;4641.0860
3825.0000;4607.3700
3826.0000;4593.8260
3827.0000;4609.3920
3828.0000;4611.7230
3829.0000;4605.3820
3830.0000;4597.1120
3831.0000;4595.4020
3832.0000;4601.4430
3833.0000;4610.2970
3834.0000;4617.1280
3835.0000;4618.1030
3836.0000;4614.7920
3837.0000;4613.3800
3838.0000;4617.7780
3839.0000;4624.1170
3840.0000;4627.0520
3841.0000;4623.0120
3842.0000;4619.7220
3843.0000;4618.5000
3844.0000;4618.8130
3845.0000;4628.2060
3846.0000;4636.8940
3847.0000;4622.0000
3848.0000;4612.7460
3849.0000;4619.9280
3850.0000;4617.6620
3851.0000;4623.9310
3852.0000;4642.7150
3853.0000;4629.2550
3854.0000;4617.5970
3855.0000;4650.1000
3856.0000;4658.8680
3857.0000;4643.4050
3858.0000;4640.3070
3859.0000;4631.2630
3860.0000;4619.2000
3861.0000;4618.4500
3862.0000;4626.2030
3863.0000;4636.4250
3864.0000;4645.3720
3865.0000;4653.2080
3866.0000;4660.9770
3867.0000;4668.9160
3868.0000;4672.4870
3869.0000;4669.3690
3870.0000;4643.8840
3871.0000;4615.8740
3872.0000;4625.8340
3873.0000;4628.1970
3874.0000;4614.6920
3875.0000;4622.5730
3876.0000;4631.9950
3877.0000;4632.5920
3878.0000;4644.9700
3879.0000;4647.8230
3880.0000;4627.4530
3881.0000;4610.3800
3882.0000;4603.2400
3883.0000;4604.7450
3884.0000;4597.5530
3885.0000;4590.1180
3886.0000;4605.0150
3887.0000;4598.8330
3888.0000;4573.7640
3889.0000;4583.7370
3890.0000;4575.6340
3891.0000;4540.9500
3892.0000;4547.1800
3893.0000;4572.8910
3894.0000;4588.0210
3895.0000;4577.8100
3896.0000;4555.7450
3897.0000;4546.9010
3898.0000;4560.9430
3899.0000;4583.2420
3900.0000;4585.2780
3901.0000;4589.9620
3902.0000;4589.4520
3903.0000;4563.2390
3904.0000;4550.6910
3905.0000;4559.7800
3906.0000;4554.1460
3907.0000;4560.4580
3908.0000;4582.3640
3909.0000;4595.3130
3910.0000;4593.5860
3911.0000;4582.3150
3912.0000;4586.8930
3913.0000;4603.4830
3914.0000;4618.4220
3915.0000;4603.4190
3916.0000;4581.3090
3917.0000;4590.9180
3918.0000;4610.3110
3919.0000;4619.7520
3920.0000;4599.7090
3921.0000;4587.7710
3922.0000;4594.6320
3923.0000;4606.6140
3924.0000;4626.3050
3925.0000;4642.7800
3926.0000;4640.6550
3927.0000;4638.9210
3928.0000;4650.1080
3929.0000;4671.0320
3930.0000;4676.2970
3931.0000;4657.4980
3932.0000;4655.0850
3933.0000;4661.1370
3934.0000;4664.6810
3935.0000;4666.8170
3936.0000;4674.6920
3937.0000;4692.0200
3938.0000;4687.6490
3939.0000;4673.9380
3940.0000;4677.1040
3941.0000;4675.6510
3942.0000;4680.2640
3943.0000;4707.9830
3944.0000;4708.6300
3945.0000;4691.6940
3946.0000;4706.9780
3947.0000;4703.5180
3948.0000;4682.7880
3949.0000;4687.5490
3950.0000;4702.4390
3951.0000;4712.4630
3952.0000;4701.2100
3953.0000;4688.4480
3954.0000;4690.8300
3955.0000;4711.5820
3956.0000;4725.0910
3957.0000;4715.3260
3958.0000;4703.9400
3959.0000;4691.9960
3960.0000;4684.9250
3961.0000;4681.0830
3962.0000;4694.7750
3963.0000;4721.2050
3964.0000;4698.5690
3965.0000;4671.3880
3966.0000;4687.4590
3967.0000;4694.9290
3968.0000;4692.3890
3969.0000;4685.2570
3970.0000;4683.7990
3971.0000;4683.6970
3972.0000;4677.3400
3973.0000;4677.5520
3974.0000;4679.8640
3975.0000;4674.6120
3976.0000;4668.4790
3977.0000;4668.6710
3978.0000;4680.1580
3979.0000;4693.5370
3980.0000;4697.8970
3981.0000;4686.5890
3982.0000;4680.7500
3983.0000;4683.8790
3984.0000;4685.4400
3985.0000;4689.4150
3986.0000;4691.4960
3987.0000;4684.5930
3988.0000;4677.6650
3989.0000;4680.0500
3990.0000;4699.2290
3991.0000;4697.7570
3992.0000;4672.7330
3993.0000;4657.3220
3994.0000;4668.1790
3995.0000;4688.0310
3996.0000;4658.2170
3997.0000;4637.4540
3998.0000;4643.6490
3999.0000;4642.8130
4000.0000;4646.4930
4001.0000;4653.8400
4002.0000;4657.8820
4003.0000;4652.7050
4004.0000;4646.7270
4005.0000;4667.7220
4006.0000;4675.4220
4007.0000;4658.3730
4008.0000;4647.9060
4009.0000;4643.9540
4010.0000;4644.0390
4011.0000;4635.0210
4012.0000;4625.3700
4013.0000;4616.7510
4014.0000;4596.4510
4015.0000;4590.7350
4016.0000;4602.5600
4017.0000;4600.3440
4018.0000;4587.3250
4019.0000;4571.3770
4020.0000;4565.9390
4021.0000;4563.9140
4022.0000;4557.4350
4023.0000;4536.4840
4024.0000;4521.4020
4025.0000;4521.5950
4026.0000;4525.8820
4027.0000;4527.4050
4028.0000;4516.4210
4029.0000;4486.2200
4030.0000;4459.8610
4031.0000;4447.9470
4032.0000;4434.9680
4033.0000;4420.6550
4034.0000;4409.6490
4035.0000;4411.1010
4036.0000;4399.4640
4037.0000;4382.2470
4038.0000;4394.9620
4039.0000;4384.0940
4040.0000;4358.5100
4041.0000;4373.7790
4042.0000;4377.4480
4043.0000;4361.3620
4044.0000;4349.5160
4045.0000;4344.4900
4046.0000;4349.6320
4047.0000;4361.1130
4048.0000;4367.3640
4049.0000;4369.3570
4050.0000;4376.4250
4051.0000;4369.9220
4052.0000;4353.8420
4053.0000;4342.4770
4054.0000;4326.0560
4055.0000;4315.4600
4056.0000;4319.5610
4057.0000;4321.7030
4058.0000;4318.8410
4059.0000;4313.1970
4060.0000;4319.2710
4061.0000;4335.9760
4062.0000;4352.9960
4063.0000;4349.0690
4064.0000;4346.7990
4065.0000;4363.9150
4066.0000;4358.3450
4067.0000;4348.9210
4068.0000;4348.4260
4069.0000;4319.9580
4070.0000;4310.8590
4071.0000;4334.7680
4072.0000;4319.7600
4073.0000;4303.6560
4074.0000;4299.9260
4075.0000;4272.8080
4076.0000;4251.0750
4077.0000;4246.5180
4078.0000;4244.5360
4079.0000;4231.7820
4080.0000;4211.0610
4081.0000;4200.7830
4082.0000;4206.8600
4083.0000;4218.4390
4084.0000;4212.7470
4085.0000;4202.9330
4086.0000;4190.8780
4087.0000;4177.2180
4088.0000;4178.1410
4089.0000;4177.5870
4090.0000;4155.8730
4091.0000;4143.7090
4092.0000;4148.4590
4093.0000;4162.3660
4094.0000;4152.3340
4095.0000;4145.5370
4096.0000;4157.1400
4097.0000;4139.6860
4098.0000;4142.2750
4099.0000;4171.1960
4100.0000;4149.3380
4101.0000;4130.4880
4102.0000;4134.8770
4103.0000;4134.8270
4104.0000;4121.3110
4105.0000;4099.2370
4106.0000;4085.9770
4107.0000;4066.7300
4108.0000;4041.7150
4109.0000;4014.8100
4110.0000;3985.3230
4111.0000;3962.7860
4112.0000;3950.0360
4113.0000;3917.2110
4114.0000;3879.6770
4115.0000;3853.6810
4116.0000;3819.3030
4117.0000;3777.4320
4118.0000;3733.9000
4119.0000;3703.1270
4120.0000;3662.0000
4121.0000;3615.8650
4122.0000;3604.6920
4123.0000;3576.4070
4124.0000;3527.1330
4125.0000;3485.8630
4126.0000;3439.1020
4127.0000;3394.6730
4128.0000;3355.7420
4129.0000;3300.6740
4130.0000;3248.9390
4131.0000;3215.1930
4132.0000;3178.2020
4133.0000;3135.2560
4134.0000;3079.4480
4135.0000;2997.0270
4136.0000;2930.5920
4137.0000;2888.1870
4138.0000;2818.1130
4139.0000;2757.1800
4140.0000;2713.7170
4141.0000;2667.3360
4142.0000;2607.7700
4143.0000;2552.5010
4144.0000;2516.1390
4145.0000;2474.6090
4146.0000;2429.3720
4147.0000;2384.7190
4148.0000;2353.7620
4149.0000;2318.0410
4150.0000;2275.0450
4151.0000;2253.5630
4152.0000;2225.3860
4153.0000;2198.8100
4154.0000;2203.3620
4155.0000;2181.9950
4156.0000;2143.9350
4157.0000;2123.0200
4158.0000;2095.2670
4159.0000;2057.0900
4160.0000;2013.5950
4161.0000;1988.5970
4162.0000;1978.8970
4163.0000;1973.7570
4164.0000;1964.4900
4165.0000;1945.2680
4166.0000;1926.9100
4167.0000;1927.0230
4168.0000;1910.9450
4169.0000;1891.6240
4170.0000;1891.6290
4171.0000;1888.6230
4172.0000;1891.7250
4173.0000;1897.9820
4174.0000;1872.9010
4175.0000;1866.5230
4176.0000;1885.1980
4177.0000;1875.7430
4178.0000;1864.1270
4179.0000;1854.0230
4180.0000;1840.9220
4181.0000;1830.6920
4182.0000;1831.2730
4183.0000;1839.4280
4184.0000;1828.5110
4185.0000;1819.8650
4186.0000;1822.9530
4187.0000;1818.8880
4188.0000;1820.3930
4189.0000;1827.0260
4190.0000;1830.6310
4191.0000;1828.9250
4192.0000;1828.5680
4193.0000;1835.3910
4194.0000;1835.5400
4195.0000;1836.8820
4196.0000;1839.7700
4197.0000;1830.2070
4198.0000;1817.3950
4199.0000;1806.0070
4200.0000;1796.2680
4201.0000;1816.6500
4202.0000;1829.3790
4203.0000;1802.6960
4204.0000;1799.8580
4205.0000;1802.6650
4206.0000;1802.5460
4207.0000;1813.2700
4208.0000;1810.6260
4209.0000;1804.8750
4210.0000;1820.3820
4211.0000;1809.8720
4212.0000;1796.6650
4213.0000;1807.3630
4214.0000;1824.2220
4215.0000;1822.8740
4216.0000;1802.4310
4217.0000;1793.6270
4218.0000;1788.8150
4219.0000;1784.2000
4220.0000;1775.9820
4221.0000;1765.9370
4222.0000;1774.5630
4223.0000;1797.7490
4224.0000;1784.3760
4225.0000;1767.4530
4226.0000;1763.2090
4227.0000;1765.7580
4228.0000;1756.5490
4229.0000;1746.4340
4230.0000;1750.0020
4231.0000;1760.9280
4232.0000;1774.2430
4233.0000;1781.7720
4234.0000;1780.8720
4235.0000;1765.9730
4236.0000;1578.5810
4237.0000;1120.8080
4238.0000;598.9996
