Raman Shift ; Dark Subtracted #1
-2.0000;13509.8300
-1.0000;12365.0800
0.0000;10838.3300
1.0000;9020.2130
2.0000;7006.5980
3.0000;5065.4350
4.0000;3499.1540
5.0000;2176.1880
6.0000;1274.9190
7.0000;965.8550
8.0000;755.2659
9.0000;642.2505
10.0000;728.5284
11.0000;706.7226
12.0000;458.1638
13.0000;199.6127
14.0000;15.0515
15.0000;-35.9397
16.0000;11.9022
17.0000;59.3260
18.0000;61.6097
19.0000;64.2238
20.0000;64.5360
21.0000;60.4572
22.0000;54.7157
23.0000;50.4120
24.0000;49.9894
25.0000;51.4359
26.0000;52.0950
27.0000;49.2226
28.0000;45.6328
29.0000;43.2983
30.0000;43.9661
31.0000;46.4576
32.0000;48.6644
33.0000;48.8499
34.0000;47.8754
35.0000;46.4630
36.0000;45.1694
37.0000;43.9577
38.0000;43.0206
39.0000;42.8191
40.0000;43.0729
41.0000;42.8495
42.0000;40.6562
43.0000;37.8135
44.0000;35.7934
45.0000;35.6303
46.0000;37.3648
47.0000;39.8940
48.0000;41.7996
49.0000;43.6314
50.0000;45.8927
51.0000;49.2537
52.0000;52.9761
53.0000;56.8051
54.0000;59.6555
55.0000;62.1119
56.0000;67.1286
57.0000;78.0578
58.0000;93.0018
59.0000;109.3752
60.0000;122.1993
61.0000;132.4895
62.0000;150.1269
63.0000;187.5310
64.0000;237.0620
65.0000;292.5132
66.0000;347.1251
67.0000;395.6290
68.0000;452.6028
69.0000;540.6119
70.0000;644.2247
71.0000;754.1014
72.0000;879.6226
73.0000;996.5477
74.0000;1100.9040
75.0000;1214.2270
76.0000;1304.5000
77.0000;1389.0160
78.0000;1512.1540
79.0000;1647.9600
80.0000;1779.0260
81.0000;1915.0060
82.0000;2029.7280
83.0000;2142.2870
84.0000;2295.9400
85.0000;2466.4060
86.0000;2637.1840
87.0000;2829.9150
88.0000;3011.1590
89.0000;3184.4410
90.0000;3387.1310
91.0000;3586.9700
92.0000;3770.2430
93.0000;3975.3700
94.0000;4165.9590
95.0000;4349.8130
96.0000;4582.1900
97.0000;4832.6330
98.0000;5067.7230
99.0000;5322.0940
100.0000;5558.7870
101.0000;5748.1560
102.0000;5957.9920
103.0000;6150.2740
104.0000;6315.8920
105.0000;6506.0720
106.0000;6695.0660
107.0000;6870.0630
108.0000;7092.1330
109.0000;7319.5150
110.0000;7528.8930
111.0000;7758.2450
112.0000;7978.7060
113.0000;8155.4120
114.0000;8346.3540
115.0000;8520.4000
116.0000;8668.4240
117.0000;8844.6720
118.0000;9030.7450
119.0000;9195.3250
120.0000;9357.8420
121.0000;9494.9290
122.0000;9604.2630
123.0000;9731.8340
124.0000;9863.2700
125.0000;9989.0370
126.0000;10142.9900
127.0000;10310.8900
128.0000;10465.1700
129.0000;10614.4700
130.0000;10736.9600
131.0000;10827.8300
132.0000;10925.6400
133.0000;11017.1100
134.0000;11095.2400
135.0000;11194.3600
136.0000;11305.4100
137.0000;11403.6300
138.0000;11489.9100
139.0000;11550.6000
140.0000;11591.9100
141.0000;11659.2900
142.0000;11749.7900
143.0000;11831.3900
144.0000;11911.1500
145.0000;11969.1500
146.0000;12008.6000
147.0000;12057.0100
148.0000;12103.3700
149.0000;12139.4200
150.0000;12175.0900
151.0000;12204.5700
152.0000;12224.6300
153.0000;12249.9700
154.0000;12276.8300
155.0000;12299.2400
156.0000;12326.9000
157.0000;12353.3900
158.0000;12373.7100
159.0000;12388.4400
160.0000;12393.5700
161.0000;12394.7200
162.0000;12404.8400
163.0000;12422.2100
164.0000;12442.9700
165.0000;12464.2500
166.0000;12484.3500
167.0000;12505.5500
168.0000;12538.2900
169.0000;12575.6900
170.0000;12611.2000
171.0000;12640.0500
172.0000;12657.2300
173.0000;12671.0600
174.0000;12701.9500
175.0000;12742.8900
176.0000;12780.1900
177.0000;12811.1500
178.0000;12827.3800
179.0000;12840.5400
180.0000;12868.4700
181.0000;12905.0500
182.0000;12939.9600
183.0000;12974.6000
184.0000;13000.5900
185.0000;13022.2000
186.0000;13054.5100
187.0000;13086.0300
188.0000;13114.2100
189.0000;13142.3600
190.0000;13161.4800
191.0000;13176.1000
192.0000;13195.6900
193.0000;13212.1600
194.0000;13227.8700
195.0000;13249.9600
196.0000;13271.6700
197.0000;13288.7800
198.0000;13303.3100
199.0000;13309.7600
200.0000;13310.8900
201.0000;13310.3100
202.0000;13307.4100
203.0000;13310.5200
204.0000;13329.1200
205.0000;13358.2900
206.0000;13387.6300
207.0000;13409.7600
208.0000;13423.2900
209.0000;13433.4700
210.0000;13449.0900
211.0000;13461.9500
212.0000;13475.5600
213.0000;13495.5100
214.0000;13513.6900
215.0000;13530.6000
216.0000;13543.6000
217.0000;13553.8500
218.0000;13571.5600
219.0000;13610.7300
220.0000;13656.3100
221.0000;13699.5300
222.0000;13735.4100
223.0000;13759.3000
224.0000;13778.6700
225.0000;13798.5600
226.0000;13813.6100
227.0000;13837.3800
228.0000;13878.5200
229.0000;13924.7000
230.0000;13974.3200
231.0000;14025.4100
232.0000;14068.2400
233.0000;14104.1100
234.0000;14132.2000
235.0000;14145.3400
236.0000;14157.0400
237.0000;14171.9000
238.0000;14183.8500
239.0000;14201.0800
240.0000;14225.2200
241.0000;14250.2500
242.0000;14276.8400
243.0000;14304.3100
244.0000;14326.8700
245.0000;14348.1800
246.0000;14365.1500
247.0000;14376.1900
248.0000;14389.5700
249.0000;14403.6300
250.0000;14414.3600
251.0000;14426.0000
252.0000;14435.9600
253.0000;14442.1800
254.0000;14446.6100
255.0000;14447.6200
256.0000;14448.8300
257.0000;14454.9900
258.0000;14466.0700
259.0000;14482.9800
260.0000;14508.2500
261.0000;14537.8100
262.0000;14569.1300
263.0000;14600.7200
264.0000;14626.2800
265.0000;14648.9900
266.0000;14678.5200
267.0000;14705.8500
268.0000;14731.2100
269.0000;14762.2400
270.0000;14789.0400
271.0000;14812.3600
272.0000;14837.5300
273.0000;14857.1000
274.0000;14877.8700
275.0000;14912.5500
276.0000;14947.4200
277.0000;14978.8000
278.0000;15007.0500
279.0000;15025.8600
280.0000;15046.0300
281.0000;15080.8300
282.0000;15114.1400
283.0000;15144.0000
284.0000;15170.4900
285.0000;15186.7500
286.0000;15200.3700
287.0000;15213.1700
288.0000;15225.1300
289.0000;15249.4500
290.0000;15296.4800
291.0000;15344.1100
292.0000;15381.5900
293.0000;15398.5000
294.0000;15403.0100
295.0000;15417.2200
296.0000;15445.8000
297.0000;15474.0600
298.0000;15498.4100
299.0000;15513.6500
300.0000;15521.9200
301.0000;15533.2100
302.0000;15544.9100
303.0000;15555.9900
304.0000;15571.7600
305.0000;15589.3900
306.0000;15605.4800
307.0000;15620.7300
308.0000;15631.8000
309.0000;15640.6800
310.0000;15653.3000
311.0000;15666.3500
312.0000;15681.3900
313.0000;15704.7000
314.0000;15730.3700
315.0000;15751.7900
316.0000;15765.9300
317.0000;15771.9400
318.0000;15781.9200
319.0000;15814.9800
320.0000;15852.8200
321.0000;15883.9000
322.0000;15897.7400
323.0000;15897.9100
324.0000;15903.7200
325.0000;15931.7000
326.0000;15965.1700
327.0000;15996.0300
328.0000;16018.7400
329.0000;16031.9900
330.0000;16045.2000
331.0000;16058.6800
332.0000;16075.9200
333.0000;16109.1900
334.0000;16162.0300
335.0000;16220.4100
336.0000;16280.4500
337.0000;16329.3900
338.0000;16366.4700
339.0000;16404.4000
340.0000;16436.4600
341.0000;16459.6100
342.0000;16489.6900
343.0000;16520.7000
344.0000;16549.1400
345.0000;16587.9800
346.0000;16627.6800
347.0000;16657.0500
348.0000;16676.3800
349.0000;16679.1700
350.0000;16679.9200
351.0000;16701.2600
352.0000;16730.3000
353.0000;16753.8600
354.0000;16766.6300
355.0000;16766.4100
356.0000;16762.8400
357.0000;16763.3400
358.0000;16765.6000
359.0000;16775.2600
360.0000;16800.8200
361.0000;16828.1500
362.0000;16845.3900
363.0000;16840.4200
364.0000;16827.0400
365.0000;16826.4400
366.0000;16849.0200
367.0000;16879.1700
368.0000;16901.6300
369.0000;16910.4900
370.0000;16912.9500
371.0000;16919.8800
372.0000;16931.2500
373.0000;16943.7300
374.0000;16960.9300
375.0000;16979.1200
376.0000;16995.9700
377.0000;17007.9200
378.0000;17014.4200
379.0000;17025.7900
380.0000;17057.7200
381.0000;17099.8400
382.0000;17142.1500
383.0000;17178.4900
384.0000;17202.9400
385.0000;17229.0000
386.0000;17277.0400
387.0000;17321.5800
388.0000;17359.3600
389.0000;17384.8800
390.0000;17395.1900
391.0000;17405.8000
392.0000;17425.9000
393.0000;17445.2800
394.0000;17468.3900
395.0000;17491.7600
396.0000;17519.8800
397.0000;17563.7300
398.0000;17626.0700
399.0000;17683.7900
400.0000;17725.8500
401.0000;17742.7100
402.0000;17744.3600
403.0000;17755.8000
404.0000;17771.0300
405.0000;17786.7700
406.0000;17808.8600
407.0000;17831.6700
408.0000;17856.4700
409.0000;17888.9100
410.0000;17918.0900
411.0000;17942.6000
412.0000;17960.3500
413.0000;17969.5900
414.0000;17984.6900
415.0000;18019.1800
416.0000;18059.2300
417.0000;18098.0800
418.0000;18131.8800
419.0000;18154.0800
420.0000;18168.2400
421.0000;18171.9300
422.0000;18169.1200
423.0000;18176.3800
424.0000;18196.1400
425.0000;18222.8400
426.0000;18256.3100
427.0000;18291.7400
428.0000;18319.3000
429.0000;18339.7200
430.0000;18344.0600
431.0000;18337.2000
432.0000;18328.2500
433.0000;18314.9100
434.0000;18304.3000
435.0000;18302.5300
436.0000;18309.8400
437.0000;18322.1100
438.0000;18333.7200
439.0000;18347.3800
440.0000;18365.1700
441.0000;18387.8600
442.0000;18410.6600
443.0000;18433.6000
444.0000;18457.4500
445.0000;18475.1200
446.0000;18487.9500
447.0000;18492.4100
448.0000;18496.1000
449.0000;18515.8400
450.0000;18551.5400
451.0000;18587.4100
452.0000;18612.1400
453.0000;18620.9400
454.0000;18626.6400
455.0000;18647.1700
456.0000;18674.4300
457.0000;18703.7700
458.0000;18733.4500
459.0000;18760.1500
460.0000;18790.2600
461.0000;18834.6700
462.0000;18880.1000
463.0000;18928.6100
464.0000;18980.4200
465.0000;19026.3300
466.0000;19076.7100
467.0000;19130.6500
468.0000;19177.4000
469.0000;19226.5600
470.0000;19274.5900
471.0000;19313.3200
472.0000;19353.8200
473.0000;19387.3000
474.0000;19419.7900
475.0000;19475.8800
476.0000;19538.7200
477.0000;19590.4300
478.0000;19628.2800
479.0000;19639.1000
480.0000;19638.6000
481.0000;19652.1800
482.0000;19658.2400
483.0000;19656.6000
484.0000;19645.9500
485.0000;19629.8400
486.0000;19618.2500
487.0000;19616.9300
488.0000;19621.3100
489.0000;19624.1300
490.0000;19623.7900
491.0000;19624.7800
492.0000;19628.6400
493.0000;19635.7500
494.0000;19647.0200
495.0000;19664.9500
496.0000;19686.2500
497.0000;19705.2600
498.0000;19719.1000
499.0000;19724.8200
500.0000;19728.9000
501.0000;19740.1500
502.0000;19751.0500
503.0000;19762.0400
504.0000;19776.2400
505.0000;19784.6800
506.0000;19782.4900
507.0000;19764.5000
508.0000;19742.6200
509.0000;19735.3300
510.0000;19747.9600
511.0000;19768.1700
512.0000;19781.4400
513.0000;19786.3600
514.0000;19790.2200
515.0000;19799.8000
516.0000;19812.5700
517.0000;19828.5300
518.0000;19848.5000
519.0000;19868.8500
520.0000;19889.6600
521.0000;19914.4800
522.0000;19934.4300
523.0000;19949.7000
524.0000;19957.5300
525.0000;19961.7000
526.0000;19977.1200
527.0000;20007.5700
528.0000;20042.2500
529.0000;20077.3200
530.0000;20104.6200
531.0000;20126.7800
532.0000;20151.7500
533.0000;20173.0300
534.0000;20195.8700
535.0000;20232.2100
536.0000;20270.0900
537.0000;20304.1000
538.0000;20336.5000
539.0000;20356.5300
540.0000;20375.8300
541.0000;20400.8900
542.0000;20422.7900
543.0000;20446.3900
544.0000;20471.7300
545.0000;20493.3200
546.0000;20514.6300
547.0000;20530.6700
548.0000;20548.9300
549.0000;20586.5300
550.0000;20633.7400
551.0000;20678.6300
552.0000;20719.3600
553.0000;20744.8200
554.0000;20758.7000
555.0000;20773.3800
556.0000;20777.4300
557.0000;20782.2800
558.0000;20795.7700
559.0000;20810.1300
560.0000;20823.4800
561.0000;20833.4800
562.0000;20844.6700
563.0000;20866.4900
564.0000;20897.7100
565.0000;20927.9600
566.0000;20950.1700
567.0000;20959.8300
568.0000;20963.8800
569.0000;20976.3600
570.0000;20988.2300
571.0000;20996.3200
572.0000;20999.4100
573.0000;20998.6700
574.0000;21003.0700
575.0000;21019.5000
576.0000;21037.7300
577.0000;21052.2200
578.0000;21058.0700
579.0000;21057.6300
580.0000;21055.8500
581.0000;21052.2500
582.0000;21050.9900
583.0000;21059.4700
584.0000;21075.5300
585.0000;21089.7900
586.0000;21093.6800
587.0000;21091.2100
588.0000;21094.1300
589.0000;21113.9400
590.0000;21137.5600
591.0000;21151.8500
592.0000;21149.1800
593.0000;21139.2000
594.0000;21137.9600
595.0000;21148.4300
596.0000;21158.8700
597.0000;21156.9900
598.0000;21144.0500
599.0000;21135.0900
600.0000;21141.6400
601.0000;21161.8400
602.0000;21189.7500
603.0000;21220.6700
604.0000;21249.5500
605.0000;21276.2100
606.0000;21295.6400
607.0000;21309.6000
608.0000;21329.8900
609.0000;21358.2400
610.0000;21388.1500
611.0000;21421.8800
612.0000;21455.3400
613.0000;21486.5100
614.0000;21523.6800
615.0000;21557.4800
616.0000;21592.2100
617.0000;21637.9100
618.0000;21684.4400
619.0000;21741.1900
620.0000;21820.6200
621.0000;21893.9800
622.0000;21962.4400
623.0000;22012.4200
624.0000;22042.5000
625.0000;22077.0100
626.0000;22107.7000
627.0000;22143.7300
628.0000;22220.5400
629.0000;22313.5800
630.0000;22388.6900
631.0000;22438.3400
632.0000;22446.1200
633.0000;22444.2800
634.0000;22458.6400
635.0000;22461.0600
636.0000;22447.5400
637.0000;22416.1900
638.0000;22375.6400
639.0000;22338.9900
640.0000;22313.9400
641.0000;22300.9300
642.0000;22292.4300
643.0000;22295.8400
644.0000;22303.6300
645.0000;22299.8000
646.0000;22297.7200
647.0000;22307.8200
648.0000;22338.5600
649.0000;22376.8200
650.0000;22408.1000
651.0000;22425.5400
652.0000;22433.0200
653.0000;22443.1800
654.0000;22452.9200
655.0000;22462.8400
656.0000;22483.2800
657.0000;22505.9100
658.0000;22521.5000
659.0000;22526.0500
660.0000;22518.1600
661.0000;22508.6300
662.0000;22501.3800
663.0000;22498.4100
664.0000;22506.5800
665.0000;22528.8500
666.0000;22549.1200
667.0000;22547.6600
668.0000;22525.5500
669.0000;22506.0100
670.0000;22515.4100
671.0000;22545.5300
672.0000;22575.6100
673.0000;22590.5100
674.0000;22593.9500
675.0000;22594.7400
676.0000;22595.8900
677.0000;22594.8400
678.0000;22595.0700
679.0000;22597.0400
680.0000;22602.4400
681.0000;22615.0400
682.0000;22632.6900
683.0000;22649.3400
684.0000;22656.8100
685.0000;22660.0500
686.0000;22674.3700
687.0000;22715.2400
688.0000;22759.1900
689.0000;22785.4200
690.0000;22780.2600
691.0000;22766.4400
692.0000;22775.0300
693.0000;22807.0600
694.0000;22850.8500
695.0000;22903.1300
696.0000;22954.1100
697.0000;22996.4900
698.0000;23027.6100
699.0000;23042.6800
700.0000;23066.4600
701.0000;23112.3200
702.0000;23155.0900
703.0000;23186.0300
704.0000;23194.3300
705.0000;23194.0200
706.0000;23207.9800
707.0000;23229.4600
708.0000;23253.8900
709.0000;23282.0400
710.0000;23308.2900
711.0000;23335.0100
712.0000;23361.7600
713.0000;23386.8400
714.0000;23424.5400
715.0000;23472.6500
716.0000;23515.0600
717.0000;23547.6400
718.0000;23560.8700
719.0000;23564.6600
720.0000;23574.2900
721.0000;23583.9100
722.0000;23604.1800
723.0000;23648.2700
724.0000;23693.7300
725.0000;23722.2800
726.0000;23720.7100
727.0000;23705.5200
728.0000;23707.0300
729.0000;23725.1200
730.0000;23749.0500
731.0000;23776.2800
732.0000;23800.4300
733.0000;23816.0500
734.0000;23818.1900
735.0000;23809.2900
736.0000;23805.8200
737.0000;23816.0700
738.0000;23831.2400
739.0000;23846.4600
740.0000;23859.3500
741.0000;23872.1500
742.0000;23888.3300
743.0000;23903.9000
744.0000;23918.8000
745.0000;23938.5800
746.0000;23953.4600
747.0000;23964.5900
748.0000;23971.5600
749.0000;23971.2900
750.0000;23967.9000
751.0000;23961.2100
752.0000;23957.3900
753.0000;23965.6700
754.0000;23983.5800
755.0000;24001.8000
756.0000;24010.2500
757.0000;24012.9600
758.0000;24019.7000
759.0000;24035.8800
760.0000;24051.7100
761.0000;24062.8800
762.0000;24065.2100
763.0000;24061.4600
764.0000;24057.3300
765.0000;24051.6700
766.0000;24045.9000
767.0000;24042.1800
768.0000;24040.5900
769.0000;24038.7300
770.0000;24033.9600
771.0000;24033.9700
772.0000;24043.0600
773.0000;24062.5200
774.0000;24092.1300
775.0000;24132.6600
776.0000;24177.1500
777.0000;24211.1000
778.0000;24232.3500
779.0000;24233.9200
780.0000;24233.9900
781.0000;24240.0500
782.0000;24246.5300
783.0000;24259.0300
784.0000;24276.1400
785.0000;24295.4100
786.0000;24317.8500
787.0000;24337.7900
788.0000;24350.0500
789.0000;24349.0700
790.0000;24343.1200
791.0000;24354.5100
792.0000;24393.1700
793.0000;24442.8900
794.0000;24487.0900
795.0000;24519.2800
796.0000;24542.9500
797.0000;24573.6600
798.0000;24598.3800
799.0000;24620.7500
800.0000;24650.8000
801.0000;24673.6900
802.0000;24693.9700
803.0000;24708.2200
804.0000;24715.6800
805.0000;24725.7900
806.0000;24734.7700
807.0000;24742.2000
808.0000;24750.0900
809.0000;24757.1000
810.0000;24768.2100
811.0000;24788.0300
812.0000;24807.8300
813.0000;24818.4200
814.0000;24814.7000
815.0000;24815.9500
816.0000;24848.3200
817.0000;24905.3700
818.0000;24957.7000
819.0000;24986.4500
820.0000;24991.0500
821.0000;24991.0500
822.0000;24994.5400
823.0000;24999.4500
824.0000;25018.9800
825.0000;25051.9500
826.0000;25085.1700
827.0000;25107.1400
828.0000;25114.3500
829.0000;25119.7300
830.0000;25137.5400
831.0000;25154.4700
832.0000;25168.7400
833.0000;25178.9200
834.0000;25181.8700
835.0000;25179.6700
836.0000;25172.0400
837.0000;25167.7000
838.0000;25178.2100
839.0000;25197.8700
840.0000;25215.5600
841.0000;25224.8500
842.0000;25228.8100
843.0000;25236.5700
844.0000;25247.9900
845.0000;25256.3400
846.0000;25258.7600
847.0000;25253.4900
848.0000;25245.4600
849.0000;25236.1700
850.0000;25230.5200
851.0000;25236.3500
852.0000;25258.3400
853.0000;25286.4300
854.0000;25308.7800
855.0000;25320.5900
856.0000;25328.1500
857.0000;25339.0800
858.0000;25348.6300
859.0000;25362.1400
860.0000;25386.0200
861.0000;25407.1200
862.0000;25417.3100
863.0000;25411.5900
864.0000;25401.4900
865.0000;25404.6100
866.0000;25417.4900
867.0000;25430.9500
868.0000;25436.0900
869.0000;25439.1500
870.0000;25450.0400
871.0000;25472.3300
872.0000;25497.6400
873.0000;25521.1000
874.0000;25538.3500
875.0000;25553.7400
876.0000;25574.1500
877.0000;25594.2800
878.0000;25618.8300
879.0000;25651.6900
880.0000;25682.0800
881.0000;25708.2000
882.0000;25724.3000
883.0000;25740.0600
884.0000;25775.4300
885.0000;25818.2100
886.0000;25857.7200
887.0000;25887.0700
888.0000;25906.5300
889.0000;25936.1100
890.0000;25978.2300
891.0000;26022.8900
892.0000;26071.4000
893.0000;26113.7900
894.0000;26150.3000
895.0000;26190.5500
896.0000;26220.3100
897.0000;26254.4200
898.0000;26296.4500
899.0000;26331.9700
900.0000;26364.4300
901.0000;26385.5700
902.0000;26401.4700
903.0000;26426.4900
904.0000;26451.6200
905.0000;26482.4000
906.0000;26524.3600
907.0000;26562.1400
908.0000;26590.9300
909.0000;26603.3300
910.0000;26614.7600
911.0000;26650.9600
912.0000;26699.5600
913.0000;26747.3600
914.0000;26792.6400
915.0000;26823.4700
916.0000;26845.2800
917.0000;26852.5500
918.0000;26856.1200
919.0000;26883.3900
920.0000;26922.3400
921.0000;26955.7500
922.0000;26975.2600
923.0000;26978.3600
924.0000;26978.3100
925.0000;26976.9900
926.0000;26978.5000
927.0000;26995.2900
928.0000;27025.2500
929.0000;27054.6000
930.0000;27074.6100
931.0000;27087.0100
932.0000;27107.2600
933.0000;27139.6600
934.0000;27167.9600
935.0000;27188.4400
936.0000;27192.2700
937.0000;27182.7600
938.0000;27163.4100
939.0000;27138.3200
940.0000;27127.4800
941.0000;27141.9900
942.0000;27167.5600
943.0000;27178.6200
944.0000;27175.2500
945.0000;27179.5100
946.0000;27216.2000
947.0000;27265.8600
948.0000;27304.2200
949.0000;27310.6000
950.0000;27304.4700
951.0000;27319.0000
952.0000;27353.3300
953.0000;27389.7100
954.0000;27419.7100
955.0000;27437.8600
956.0000;27455.4600
957.0000;27475.6000
958.0000;27494.7100
959.0000;27524.6800
960.0000;27560.1400
961.0000;27591.1900
962.0000;27610.2500
963.0000;27617.1900
964.0000;27633.7800
965.0000;27674.2800
966.0000;27720.2300
967.0000;27759.7000
968.0000;27785.6300
969.0000;27803.4600
970.0000;27830.2400
971.0000;27854.0400
972.0000;27881.5000
973.0000;27913.4900
974.0000;27946.2900
975.0000;27992.8900
976.0000;28045.0700
977.0000;28087.0700
978.0000;28109.2100
979.0000;28108.6300
980.0000;28115.6100
981.0000;28152.1300
982.0000;28193.1000
983.0000;28219.9500
984.0000;28226.0600
985.0000;28231.2300
986.0000;28266.0500
987.0000;28310.9800
988.0000;28348.9800
989.0000;28364.0600
990.0000;28367.5200
991.0000;28387.3700
992.0000;28421.8700
993.0000;28455.5800
994.0000;28474.5000
995.0000;28483.2200
996.0000;28507.1500
997.0000;28559.5200
998.0000;28623.3800
999.0000;28687.7500
1000.0000;28743.7200
1001.0000;28789.8200
1002.0000;28843.6500
1003.0000;28883.4200
1004.0000;28914.5000
1005.0000;28940.0000
1006.0000;28948.2000
1007.0000;28948.2800
1008.0000;28937.9300
1009.0000;28929.1700
1010.0000;28941.3400
1011.0000;28963.6400
1012.0000;28982.4900
1013.0000;28987.2300
1014.0000;28989.3700
1015.0000;29005.2500
1016.0000;29032.3300
1017.0000;29058.6100
1018.0000;29075.7700
1019.0000;29085.4100
1020.0000;29101.5200
1021.0000;29129.1700
1022.0000;29154.0700
1023.0000;29171.0900
1024.0000;29176.2200
1025.0000;29184.0600
1026.0000;29214.4200
1027.0000;29247.5000
1028.0000;29266.6300
1029.0000;29261.4600
1030.0000;29250.9900
1031.0000;29260.8800
1032.0000;29287.0500
1033.0000;29317.8800
1034.0000;29350.5800
1035.0000;29373.8800
1036.0000;29381.5000
1037.0000;29367.6500
1038.0000;29352.6200
1039.0000;29364.5700
1040.0000;29396.5400
1041.0000;29430.7600
1042.0000;29455.4600
1043.0000;29472.8800
1044.0000;29494.3500
1045.0000;29516.0100
1046.0000;29532.0000
1047.0000;29546.2400
1048.0000;29552.2100
1049.0000;29555.7300
1050.0000;29558.6400
1051.0000;29562.7800
1052.0000;29575.1800
1053.0000;29595.9500
1054.0000;29621.6600
1055.0000;29653.9900
1056.0000;29683.7900
1057.0000;29707.2400
1058.0000;29717.4900
1059.0000;29729.0200
1060.0000;29772.0000
1061.0000;29834.4600
1062.0000;29887.0600
1063.0000;29917.8600
1064.0000;29917.1500
1065.0000;29898.8400
1066.0000;29863.3200
1067.0000;29836.7300
1068.0000;29855.9400
1069.0000;29910.9400
1070.0000;29960.5300
1071.0000;29976.1400
1072.0000;29972.4900
1073.0000;29970.3400
1074.0000;29971.5800
1075.0000;29988.0100
1076.0000;30036.3000
1077.0000;30104.2600
1078.0000;30175.4800
1079.0000;30239.3900
1080.0000;30282.3700
1081.0000;30309.4400
1082.0000;30310.1400
1083.0000;30309.6600
1084.0000;30338.8000
1085.0000;30378.1700
1086.0000;30423.5200
1087.0000;30468.7200
1088.0000;30504.1500
1089.0000;30528.0700
1090.0000;30535.4100
1091.0000;30551.6900
1092.0000;30597.3500
1093.0000;30647.1600
1094.0000;30688.1600
1095.0000;30710.2500
1096.0000;30724.3000
1097.0000;30759.3400
1098.0000;30787.1600
1099.0000;30793.1800
1100.0000;30766.1100
1101.0000;30729.1100
1102.0000;30714.4300
1103.0000;30726.4600
1104.0000;30751.0400
1105.0000;30778.2200
1106.0000;30806.9900
1107.0000;30831.5100
1108.0000;30844.3600
1109.0000;30852.5300
1110.0000;30870.4100
1111.0000;30889.7000
1112.0000;30906.6000
1113.0000;30920.2000
1114.0000;30928.2500
1115.0000;30935.8300
1116.0000;30941.2200
1117.0000;30951.0100
1118.0000;30973.6100
1119.0000;31002.8900
1120.0000;31034.8400
1121.0000;31066.1500
1122.0000;31090.0800
1123.0000;31109.3000
1124.0000;31115.3600
1125.0000;31113.4400
1126.0000;31111.3400
1127.0000;31100.2200
1128.0000;31076.8600
1129.0000;31045.4000
1130.0000;31023.6000
1131.0000;31027.2400
1132.0000;31050.4300
1133.0000;31068.4500
1134.0000;31070.0000
1135.0000;31062.1100
1136.0000;31051.2000
1137.0000;31037.2000
1138.0000;31021.3900
1139.0000;30997.6300
1140.0000;30987.3000
1141.0000;31010.1900
1142.0000;31068.1100
1143.0000;31122.2500
1144.0000;31136.3200
1145.0000;31114.2000
1146.0000;31080.1000
1147.0000;31045.2100
1148.0000;31019.2900
1149.0000;31022.8900
1150.0000;31055.2700
1151.0000;31081.8400
1152.0000;31075.3100
1153.0000;31055.7300
1154.0000;31047.9700
1155.0000;31056.5200
1156.0000;31064.5500
1157.0000;31054.2300
1158.0000;31037.1500
1159.0000;31031.2200
1160.0000;31045.0700
1161.0000;31066.1500
1162.0000;31079.6000
1163.0000;31086.1300
1164.0000;31098.0800
1165.0000;31122.7000
1166.0000;31152.2200
1167.0000;31182.7100
1168.0000;31207.9700
1169.0000;31232.2800
1170.0000;31260.7400
1171.0000;31289.0000
1172.0000;31329.5700
1173.0000;31382.1300
1174.0000;31431.3600
1175.0000;31472.4800
1176.0000;31495.1700
1177.0000;31510.6800
1178.0000;31526.9200
1179.0000;31539.3900
1180.0000;31564.0100
1181.0000;31595.5000
1182.0000;31624.6000
1183.0000;31651.6700
1184.0000;31664.4300
1185.0000;31666.3700
1186.0000;31654.3700
1187.0000;31646.3400
1188.0000;31669.8100
1189.0000;31711.3600
1190.0000;31739.7000
1191.0000;31734.1700
1192.0000;31724.5100
1193.0000;31754.0900
1194.0000;31815.7700
1195.0000;31867.5000
1196.0000;31880.2100
1197.0000;31866.9500
1198.0000;31863.4300
1199.0000;31874.3800
1200.0000;31882.9100
1201.0000;31877.6400
1202.0000;31866.7900
1203.0000;31866.9000
1204.0000;31885.0700
1205.0000;31912.7600
1206.0000;31939.0600
1207.0000;31964.6000
1208.0000;31997.9200
1209.0000;32048.8800
1210.0000;32089.2700
1211.0000;32099.7500
1212.0000;32075.9300
1213.0000;32059.2800
1214.0000;32096.7700
1215.0000;32152.2100
1216.0000;32187.7600
1217.0000;32188.6000
1218.0000;32174.8900
1219.0000;32170.2400
1220.0000;32168.5800
1221.0000;32172.7900
1222.0000;32184.2000
1223.0000;32203.4200
1224.0000;32235.6200
1225.0000;32270.2700
1226.0000;32288.5700
1227.0000;32277.0800
1228.0000;32251.5200
1229.0000;32244.8800
1230.0000;32259.7500
1231.0000;32277.7700
1232.0000;32282.8700
1233.0000;32284.5500
1234.0000;32294.9100
1235.0000;32315.2500
1236.0000;32334.6100
1237.0000;32344.6200
1238.0000;32347.3000
1239.0000;32357.5100
1240.0000;32380.7000
1241.0000;32402.9500
1242.0000;32416.8300
1243.0000;32419.1000
1244.0000;32418.3400
1245.0000;32417.8000
1246.0000;32421.6700
1247.0000;32440.2000
1248.0000;32471.6700
1249.0000;32506.2900
1250.0000;32541.7300
1251.0000;32565.6200
1252.0000;32576.7900
1253.0000;32569.6900
1254.0000;32556.8600
1255.0000;32559.0800
1256.0000;32565.1000
1257.0000;32564.6200
1258.0000;32554.3400
1259.0000;32546.0000
1260.0000;32548.6400
1261.0000;32561.7300
1262.0000;32579.3500
1263.0000;32597.8100
1264.0000;32616.7200
1265.0000;32634.3700
1266.0000;32648.8300
1267.0000;32669.3300
1268.0000;32705.2900
1269.0000;32735.4100
1270.0000;32747.1100
1271.0000;32734.3900
1272.0000;32717.7800
1273.0000;32712.6500
1274.0000;32717.1800
1275.0000;32729.9300
1276.0000;32753.2600
1277.0000;32794.8400
1278.0000;32873.7000
1279.0000;32954.1800
1280.0000;32999.6500
1281.0000;32985.8400
1282.0000;32961.6200
1283.0000;32994.7200
1284.0000;33053.2900
1285.0000;33090.9400
1286.0000;33085.9400
1287.0000;33074.8000
1288.0000;33103.4900
1289.0000;33158.2000
1290.0000;33217.5400
1291.0000;33268.7500
1292.0000;33309.1300
1293.0000;33351.0200
1294.0000;33380.5800
1295.0000;33399.5200
1296.0000;33412.7900
1297.0000;33413.6200
1298.0000;33418.0200
1299.0000;33422.8000
1300.0000;33422.2200
1301.0000;33410.7700
1302.0000;33399.6000
1303.0000;33405.4500
1304.0000;33430.7300
1305.0000;33456.9800
1306.0000;33466.0000
1307.0000;33466.1700
1308.0000;33480.0300
1309.0000;33511.9400
1310.0000;33530.8100
1311.0000;33506.4900
1312.0000;33463.2200
1313.0000;33450.9700
1314.0000;33491.2900
1315.0000;33553.9800
1316.0000;33614.0900
1317.0000;33660.9100
1318.0000;33696.9300
1319.0000;33713.9000
1320.0000;33720.5700
1321.0000;33746.6300
1322.0000;33780.8600
1323.0000;33813.3000
1324.0000;33840.6800
1325.0000;33859.5000
1326.0000;33883.2800
1327.0000;33902.5200
1328.0000;33918.0700
1329.0000;33929.9100
1330.0000;33938.2700
1331.0000;33955.5100
1332.0000;33978.0400
1333.0000;33997.6300
1334.0000;34014.4300
1335.0000;34020.9700
1336.0000;34018.8900
1337.0000;34007.8700
1338.0000;34004.2900
1339.0000;34023.6300
1340.0000;34053.5700
1341.0000;34082.8800
1342.0000;34103.5600
1343.0000;34113.0000
1344.0000;34115.3200
1345.0000;34105.6400
1346.0000;34093.8800
1347.0000;34083.4200
1348.0000;34080.9800
1349.0000;34098.5700
1350.0000;34121.9700
1351.0000;34125.3200
1352.0000;34099.7300
1353.0000;34066.6200
1354.0000;34045.5500
1355.0000;34035.9500
1356.0000;34030.8600
1357.0000;34030.3300
1358.0000;34038.8900
1359.0000;34055.0700
1360.0000;34076.0700
1361.0000;34093.1400
1362.0000;34101.5200
1363.0000;34105.4700
1364.0000;34114.6300
1365.0000;34124.1500
1366.0000;34132.8300
1367.0000;34138.7300
1368.0000;34147.9300
1369.0000;34171.6500
1370.0000;34202.4000
1371.0000;34230.9600
1372.0000;34250.6500
1373.0000;34261.8100
1374.0000;34274.0700
1375.0000;34282.4700
1376.0000;34296.4100
1377.0000;34321.9300
1378.0000;34340.4700
1379.0000;34340.6100
1380.0000;34322.5400
1381.0000;34308.1900
1382.0000;34309.3300
1383.0000;34321.7000
1384.0000;34339.7100
1385.0000;34364.2800
1386.0000;34392.7500
1387.0000;34420.6800
1388.0000;34449.7000
1389.0000;34492.7300
1390.0000;34537.3100
1391.0000;34574.6500
1392.0000;34599.1900
1393.0000;34608.6700
1394.0000;34623.2900
1395.0000;34633.7500
1396.0000;34636.3300
1397.0000;34627.3100
1398.0000;34622.1200
1399.0000;34641.5500
1400.0000;34684.6800
1401.0000;34738.9900
1402.0000;34795.0500
1403.0000;34847.7900
1404.0000;34907.7800
1405.0000;34957.1100
1406.0000;34992.8800
1407.0000;35011.5300
1408.0000;35021.5300
1409.0000;35066.8400
1410.0000;35128.7000
1411.0000;35167.7700
1412.0000;35156.1100
1413.0000;35130.4100
1414.0000;35154.9600
1415.0000;35216.4300
1416.0000;35265.4900
1417.0000;35272.8900
1418.0000;35256.0600
1419.0000;35244.3600
1420.0000;35237.4100
1421.0000;35242.3400
1422.0000;35265.1600
1423.0000;35295.5900
1424.0000;35319.4800
1425.0000;35335.2800
1426.0000;35355.9800
1427.0000;35386.9400
1428.0000;35421.5200
1429.0000;35468.6400
1430.0000;35512.5900
1431.0000;35546.2900
1432.0000;35563.5300
1433.0000;35565.8100
1434.0000;35575.1800
1435.0000;35583.8100
1436.0000;35591.3500
1437.0000;35597.8900
1438.0000;35602.1100
1439.0000;35609.7800
1440.0000;35615.5000
1441.0000;35612.8600
1442.0000;35598.2200
1443.0000;35582.4100
1444.0000;35572.4600
1445.0000;35575.9300
1446.0000;35600.9800
1447.0000;35652.6000
1448.0000;35696.5800
1449.0000;35697.0700
1450.0000;35662.0800
1451.0000;35638.3400
1452.0000;35645.6300
1453.0000;35661.0800
1454.0000;35662.7700
1455.0000;35658.8100
1456.0000;35659.1900
1457.0000;35666.9200
1458.0000;35678.5300
1459.0000;35698.3400
1460.0000;35713.0300
1461.0000;35703.2900
1462.0000;35661.4600
1463.0000;35638.8500
1464.0000;35686.6500
1465.0000;35770.5400
1466.0000;35821.8200
1467.0000;35819.5300
1468.0000;35794.9000
1469.0000;35785.3000
1470.0000;35775.1300
1471.0000;35766.8700
1472.0000;35763.0300
1473.0000;35759.4700
1474.0000;35747.5200
1475.0000;35739.9600
1476.0000;35747.3300
1477.0000;35770.8500
1478.0000;35797.5300
1479.0000;35811.2800
1480.0000;35824.6900
1481.0000;35862.0900
1482.0000;35914.3600
1483.0000;35943.1900
1484.0000;35922.9500
1485.0000;35885.6400
1486.0000;35883.3500
1487.0000;35914.3800
1488.0000;35951.5800
1489.0000;35978.8900
1490.0000;35995.0000
1491.0000;35994.5500
1492.0000;35980.8600
1493.0000;35986.0300
1494.0000;36027.8800
1495.0000;36078.5500
1496.0000;36113.2800
1497.0000;36133.4200
1498.0000;36174.5700
1499.0000;36247.2500
1500.0000;36302.3400
1501.0000;36311.0400
1502.0000;36280.7300
1503.0000;36268.4500
1504.0000;36292.9200
1505.0000;36330.8100
1506.0000;36373.4700
1507.0000;36411.6100
1508.0000;36445.9300
1509.0000;36466.5100
1510.0000;36471.6800
1511.0000;36467.3800
1512.0000;36455.5800
1513.0000;36460.2700
1514.0000;36483.0200
1515.0000;36506.7400
1516.0000;36518.5400
1517.0000;36525.9100
1518.0000;36540.1900
1519.0000;36559.1500
1520.0000;36587.4200
1521.0000;36629.8500
1522.0000;36665.3400
1523.0000;36676.2700
1524.0000;36666.1700
1525.0000;36675.8400
1526.0000;36724.1400
1527.0000;36788.5100
1528.0000;36866.6400
1529.0000;36934.7000
1530.0000;36981.5400
1531.0000;36993.1800
1532.0000;36985.2000
1533.0000;36992.6400
1534.0000;37002.2100
1535.0000;37021.8100
1536.0000;37049.3800
1537.0000;37072.5200
1538.0000;37077.2900
1539.0000;37076.4900
1540.0000;37101.5500
1541.0000;37150.1600
1542.0000;37196.4400
1543.0000;37231.9600
1544.0000;37244.5200
1545.0000;37238.2000
1546.0000;37212.0600
1547.0000;37195.7500
1548.0000;37208.9800
1549.0000;37233.2900
1550.0000;37252.7100
1551.0000;37262.8100
1552.0000;37259.1900
1553.0000;37236.8200
1554.0000;37219.8600
1555.0000;37236.3000
1556.0000;37273.6300
1557.0000;37305.8400
1558.0000;37321.8800
1559.0000;37321.6000
1560.0000;37304.1100
1561.0000;37279.4000
1562.0000;37278.7900
1563.0000;37303.2600
1564.0000;37316.2000
1565.0000;37288.0500
1566.0000;37253.3200
1567.0000;37248.6100
1568.0000;37275.4200
1569.0000;37311.2100
1570.0000;37343.6300
1571.0000;37371.3900
1572.0000;37396.9900
1573.0000;37409.9100
1574.0000;37416.7100
1575.0000;37417.1300
1576.0000;37408.3700
1577.0000;37390.2300
1578.0000;37373.7400
1579.0000;37383.5900
1580.0000;37420.9700
1581.0000;37441.5100
1582.0000;37408.4700
1583.0000;37354.6300
1584.0000;37322.5200
1585.0000;37319.9500
1586.0000;37330.2000
1587.0000;37344.0700
1588.0000;37364.3700
1589.0000;37377.8000
1590.0000;37389.2200
1591.0000;37415.7700
1592.0000;37461.1800
1593.0000;37508.7000
1594.0000;37559.5700
1595.0000;37588.7800
1596.0000;37591.8200
1597.0000;37562.8600
1598.0000;37535.6200
1599.0000;37545.7600
1600.0000;37570.7600
1601.0000;37585.0600
1602.0000;37587.2600
1603.0000;37588.6100
1604.0000;37593.6500
1605.0000;37600.5400
1606.0000;37608.6100
1607.0000;37621.2100
1608.0000;37648.0500
1609.0000;37690.4400
1610.0000;37732.6400
1611.0000;37760.6300
1612.0000;37776.8200
1613.0000;37807.1400
1614.0000;37849.8400
1615.0000;37892.9600
1616.0000;37939.4300
1617.0000;37970.5000
1618.0000;37984.7700
1619.0000;37976.8700
1620.0000;37971.4600
1621.0000;37983.1500
1622.0000;37995.5100
1623.0000;37993.0400
1624.0000;37987.8900
1625.0000;38007.2300
1626.0000;38055.1200
1627.0000;38100.6800
1628.0000;38123.2700
1629.0000;38123.3500
1630.0000;38122.8900
1631.0000;38120.5800
1632.0000;38122.1500
1633.0000;38132.6700
1634.0000;38149.9500
1635.0000;38174.8300
1636.0000;38201.0500
1637.0000;38225.1800
1638.0000;38240.6600
1639.0000;38258.3200
1640.0000;38297.9200
1641.0000;38338.3600
1642.0000;38364.6600
1643.0000;38369.4100
1644.0000;38370.0700
1645.0000;38384.7600
1646.0000;38395.2800
1647.0000;38391.7900
1648.0000;38379.3200
1649.0000;38384.6800
1650.0000;38421.5300
1651.0000;38448.5300
1652.0000;38419.8200
1653.0000;38373.3600
1654.0000;38380.5400
1655.0000;38451.2100
1656.0000;38514.6100
1657.0000;38515.9300
1658.0000;38483.3700
1659.0000;38461.4900
1660.0000;38446.0300
1661.0000;38423.0800
1662.0000;38388.6600
1663.0000;38362.6500
1664.0000;38353.7000
1665.0000;38361.9200
1666.0000;38362.3400
1667.0000;38352.3400
1668.0000;38344.1000
1669.0000;38342.2100
1670.0000;38347.7000
1671.0000;38360.2600
1672.0000;38376.7100
1673.0000;38386.8900
1674.0000;38385.3600
1675.0000;38377.8100
1676.0000;38378.0100
1677.0000;38375.2700
1678.0000;38355.8400
1679.0000;38320.6000
1680.0000;38291.5300
1681.0000;38283.3800
1682.0000;38285.4500
1683.0000;38272.1500
1684.0000;38250.2100
1685.0000;38225.8100
1686.0000;38203.9000
1687.0000;38190.2200
1688.0000;38182.2700
1689.0000;38185.1600
1690.0000;38188.5300
1691.0000;38192.0900
1692.0000;38197.9300
1693.0000;38207.1900
1694.0000;38212.4100
1695.0000;38210.2100
1696.0000;38197.2700
1697.0000;38170.6800
1698.0000;38131.7900
1699.0000;38102.7000
1700.0000;38095.8000
1701.0000;38113.2000
1702.0000;38135.4800
1703.0000;38159.9300
1704.0000;38181.9000
1705.0000;38196.0000
1706.0000;38200.7900
1707.0000;38207.9900
1708.0000;38205.1000
1709.0000;38180.2800
1710.0000;38133.1900
1711.0000;38098.7500
1712.0000;38109.9100
1713.0000;38136.7100
1714.0000;38121.6900
1715.0000;38075.9600
1716.0000;38050.9100
1717.0000;38072.0700
1718.0000;38103.9100
1719.0000;38102.4100
1720.0000;38091.1100
1721.0000;38106.8800
1722.0000;38150.6500
1723.0000;38185.2500
1724.0000;38181.2400
1725.0000;38174.5100
1726.0000;38218.3000
1727.0000;38291.6400
1728.0000;38343.7900
1729.0000;38354.9300
1730.0000;38354.9600
1731.0000;38379.8700
1732.0000;38404.0200
1733.0000;38422.8300
1734.0000;38430.1200
1735.0000;38431.7200
1736.0000;38430.3000
1737.0000;38425.8300
1738.0000;38424.5000
1739.0000;38425.6300
1740.0000;38428.2900
1741.0000;38433.4400
1742.0000;38445.5500
1743.0000;38465.8800
1744.0000;38493.0400
1745.0000;38537.1500
1746.0000;38577.2300
1747.0000;38585.3100
1748.0000;38547.9900
1749.0000;38513.2400
1750.0000;38523.8400
1751.0000;38555.5400
1752.0000;38576.7200
1753.0000;38586.5600
1754.0000;38601.7000
1755.0000;38626.6200
1756.0000;38642.1700
1757.0000;38640.1100
1758.0000;38619.9200
1759.0000;38594.5500
1760.0000;38568.7300
1761.0000;38550.5400
1762.0000;38542.5800
1763.0000;38556.3000
1764.0000;38596.1100
1765.0000;38647.6700
1766.0000;38681.5400
1767.0000;38681.7900
1768.0000;38662.8600
1769.0000;38635.0800
1770.0000;38606.8000
1771.0000;38594.2500
1772.0000;38600.5400
1773.0000;38610.6400
1774.0000;38620.8500
1775.0000;38629.9800
1776.0000;38637.8400
1777.0000;38637.1200
1778.0000;38625.9900
1779.0000;38603.2200
1780.0000;38574.8600
1781.0000;38544.6400
1782.0000;38520.3000
1783.0000;38498.9000
1784.0000;38490.2700
1785.0000;38490.3600
1786.0000;38494.8400
1787.0000;38468.2000
1788.0000;38388.5900
1789.0000;38318.3700
1790.0000;38299.0800
1791.0000;38330.2300
1792.0000;38369.4600
1793.0000;38409.2400
1794.0000;38441.1800
1795.0000;38457.0300
1796.0000;38456.0400
1797.0000;38455.7700
1798.0000;38445.2900
1799.0000;38426.7200
1800.0000;38401.2500
1801.0000;38361.1400
1802.0000;38303.3100
1803.0000;38250.7600
1804.0000;38206.5400
1805.0000;38188.6800
1806.0000;38182.3400
1807.0000;38190.5200
1808.0000;38204.3800
1809.0000;38211.9800
1810.0000;38215.9500
1811.0000;38221.6900
1812.0000;38219.0100
1813.0000;38193.5200
1814.0000;38142.4800
1815.0000;38093.8000
1816.0000;38066.6600
1817.0000;38060.6100
1818.0000;38051.4900
1819.0000;38052.6300
1820.0000;38070.7300
1821.0000;38106.5700
1822.0000;38128.2400
1823.0000;38107.8300
1824.0000;38071.1000
1825.0000;38053.5400
1826.0000;38058.0000
1827.0000;38072.1200
1828.0000;38091.9300
1829.0000;38107.2000
1830.0000;38104.1100
1831.0000;38092.8500
1832.0000;38092.2700
1833.0000;38100.9400
1834.0000;38110.8200
1835.0000;38118.7500
1836.0000;38132.5900
1837.0000;38163.3800
1838.0000;38188.5300
1839.0000;38185.7000
1840.0000;38160.7300
1841.0000;38159.8600
1842.0000;38199.4400
1843.0000;38243.0600
1844.0000;38263.5700
1845.0000;38268.8500
1846.0000;38281.4400
1847.0000;38292.1000
1848.0000;38290.8600
1849.0000;38274.4900
1850.0000;38270.3800
1851.0000;38303.8600
1852.0000;38352.2900
1853.0000;38387.4900
1854.0000;38404.9800
1855.0000;38424.8400
1856.0000;38448.1800
1857.0000;38464.7100
1858.0000;38472.7400
1859.0000;38475.9200
1860.0000;38491.3800
1861.0000;38515.0400
1862.0000;38545.6600
1863.0000;38578.6400
1864.0000;38606.3500
1865.0000;38626.9100
1866.0000;38635.7300
1867.0000;38647.4500
1868.0000;38653.8600
1869.0000;38656.2500
1870.0000;38653.8600
1871.0000;38649.9500
1872.0000;38648.2500
1873.0000;38649.4900
1874.0000;38650.2700
1875.0000;38658.8700
1876.0000;38690.3500
1877.0000;38742.7100
1878.0000;38787.4500
1879.0000;38803.9200
1880.0000;38806.8300
1881.0000;38827.4300
1882.0000;38854.1300
1883.0000;38887.3200
1884.0000;38919.8800
1885.0000;38952.9600
1886.0000;38986.2000
1887.0000;39012.6100
1888.0000;39038.4800
1889.0000;39059.6200
1890.0000;39097.7200
1891.0000;39144.0700
1892.0000;39177.6400
1893.0000;39185.5300
1894.0000;39183.9000
1895.0000;39201.4700
1896.0000;39225.9100
1897.0000;39256.9400
1898.0000;39288.6800
1899.0000;39327.8000
1900.0000;39372.5700
1901.0000;39405.2100
1902.0000;39421.6500
1903.0000;39416.4200
1904.0000;39413.7500
1905.0000;39406.0400
1906.0000;39381.9600
1907.0000;39341.3400
1908.0000;39325.5700
1909.0000;39362.2200
1910.0000;39424.6400
1911.0000;39467.4800
1912.0000;39487.5300
1913.0000;39498.1400
1914.0000;39497.2200
1915.0000;39502.5700
1916.0000;39531.0300
1917.0000;39564.4600
1918.0000;39596.7400
1919.0000;39617.4200
1920.0000;39629.2700
1921.0000;39629.1600
1922.0000;39637.4200
1923.0000;39665.8900
1924.0000;39697.5100
1925.0000;39722.1600
1926.0000;39742.5200
1927.0000;39782.2100
1928.0000;39827.5900
1929.0000;39865.3900
1930.0000;39883.2800
1931.0000;39885.6600
1932.0000;39882.0700
1933.0000;39875.4300
1934.0000;39885.6600
1935.0000;39910.0800
1936.0000;39939.6000
1937.0000;39969.5000
1938.0000;39995.5100
1939.0000;40016.2400
1940.0000;40030.4300
1941.0000;40042.9100
1942.0000;40062.6300
1943.0000;40120.8100
1944.0000;40210.2400
1945.0000;40287.9600
1946.0000;40331.7700
1947.0000;40351.8400
1948.0000;40381.8900
1949.0000;40401.4300
1950.0000;40428.3600
1951.0000;40452.5200
1952.0000;40474.8400
1953.0000;40491.3500
1954.0000;40511.3700
1955.0000;40547.1100
1956.0000;40583.4500
1957.0000;40620.1800
1958.0000;40645.8200
1959.0000;40658.8000
1960.0000;40658.8000
1961.0000;40683.0900
1962.0000;40751.4300
1963.0000;40832.5000
1964.0000;40911.1600
1965.0000;40968.1800
1966.0000;41005.5100
1967.0000;41017.7800
1968.0000;41061.5400
1969.0000;41150.1900
1970.0000;41229.7300
1971.0000;41271.0300
1972.0000;41281.5400
1973.0000;41303.3500
1974.0000;41322.0400
1975.0000;41354.2100
1976.0000;41392.7500
1977.0000;41417.7000
1978.0000;41418.0700
1979.0000;41407.8000
1980.0000;41407.6100
1981.0000;41414.0700
1982.0000;41431.9900
1983.0000;41459.0900
1984.0000;41488.2700
1985.0000;41513.8000
1986.0000;41545.0700
1987.0000;41588.5000
1988.0000;41629.9700
1989.0000;41680.8000
1990.0000;41713.9000
1991.0000;41719.9400
1992.0000;41694.3500
1993.0000;41672.8300
1994.0000;41673.3800
1995.0000;41696.8600
1996.0000;41744.6200
1997.0000;41805.1900
1998.0000;41862.3300
1999.0000;41905.8100
2000.0000;41956.9100
2001.0000;42004.7700
2002.0000;42031.4800
2003.0000;42029.8700
2004.0000;42010.8700
2005.0000;42003.1400
2006.0000;42002.0200
2007.0000;42012.8600
2008.0000;42033.2900
2009.0000;42051.5300
2010.0000;42060.7200
2011.0000;42055.0300
2012.0000;42024.5400
2013.0000;42014.4200
2014.0000;42085.7700
2015.0000;42186.3000
2016.0000;42219.0100
2017.0000;42177.8700
2018.0000;42162.0200
2019.0000;42211.1600
2020.0000;42271.7000
2021.0000;42313.6000
2022.0000;42342.5700
2023.0000;42379.9200
2024.0000;42406.6600
2025.0000;42429.1500
2026.0000;42436.3300
2027.0000;42421.1100
2028.0000;42381.8300
2029.0000;42341.5800
2030.0000;42322.4800
2031.0000;42328.8400
2032.0000;42353.2700
2033.0000;42392.1400
2034.0000;42420.6600
2035.0000;42428.4000
2036.0000;42419.9000
2037.0000;42396.4300
2038.0000;42373.9000
2039.0000;42379.0800
2040.0000;42385.0900
2041.0000;42350.3900
2042.0000;42290.0200
2043.0000;42235.0900
2044.0000;42206.9100
2045.0000;42207.9800
2046.0000;42243.2500
2047.0000;42278.2000
2048.0000;42266.3800
2049.0000;42233.1600
2050.0000;42222.0800
2051.0000;42229.0300
2052.0000;42230.8200
2053.0000;42224.2300
2054.0000;42216.7400
2055.0000;42209.7100
2056.0000;42216.9000
2057.0000;42247.7300
2058.0000;42292.5200
2059.0000;42338.6100
2060.0000;42372.1100
2061.0000;42396.9700
2062.0000;42405.2700
2063.0000;42403.2700
2064.0000;42395.9600
2065.0000;42399.0000
2066.0000;42435.7600
2067.0000;42487.3900
2068.0000;42532.4900
2069.0000;42557.1200
2070.0000;42558.5100
2071.0000;42532.8000
2072.0000;42506.3200
2073.0000;42494.9300
2074.0000;42511.7100
2075.0000;42575.9900
2076.0000;42643.2800
2077.0000;42645.6700
2078.0000;42592.9900
2079.0000;42565.1500
2080.0000;42576.1300
2081.0000;42580.2800
2082.0000;42557.1500
2083.0000;42540.1700
2084.0000;42555.3400
2085.0000;42582.9900
2086.0000;42592.8900
2087.0000;42591.1700
2088.0000;42606.2100
2089.0000;42634.5000
2090.0000;42637.5400
2091.0000;42598.6100
2092.0000;42573.2600
2093.0000;42609.6000
2094.0000;42676.9800
2095.0000;42738.5000
2096.0000;42783.4100
2097.0000;42807.1200
2098.0000;42803.0200
2099.0000;42810.1100
2100.0000;42842.8800
2101.0000;42870.3300
2102.0000;42874.2500
2103.0000;42872.7200
2104.0000;42891.6300
2105.0000;42922.9500
2106.0000;42966.6900
2107.0000;43009.6300
2108.0000;43038.8000
2109.0000;43044.1500
2110.0000;43027.8000
2111.0000;42995.1700
2112.0000;42965.7000
2113.0000;42962.4100
2114.0000;42980.9500
2115.0000;43007.8300
2116.0000;43031.8200
2117.0000;43023.5700
2118.0000;42981.5600
2119.0000;42963.8300
2120.0000;43000.5400
2121.0000;43048.4500
2122.0000;43063.5100
2123.0000;43081.0800
2124.0000;43155.2600
2125.0000;43238.4300
2126.0000;43268.7800
2127.0000;43237.2100
2128.0000;43213.2300
2129.0000;43222.7700
2130.0000;43230.1100
2131.0000;43218.4900
2132.0000;43201.2900
2133.0000;43189.8100
2134.0000;43181.9900
2135.0000;43167.7900
2136.0000;43156.0200
2137.0000;43155.9100
2138.0000;43171.6800
2139.0000;43199.9600
2140.0000;43236.8100
2141.0000;43261.0200
2142.0000;43257.0700
2143.0000;43235.4900
2144.0000;43222.8600
2145.0000;43218.6000
2146.0000;43227.2300
2147.0000;43243.3500
2148.0000;43233.8100
2149.0000;43191.6400
2150.0000;43162.2000
2151.0000;43175.6100
2152.0000;43198.6000
2153.0000;43198.6800
2154.0000;43178.3200
2155.0000;43126.8200
2156.0000;43076.1000
2157.0000;43088.3900
2158.0000;43171.6600
2159.0000;43258.2700
2160.0000;43306.6100
2161.0000;43317.5200
2162.0000;43290.8900
2163.0000;43243.2700
2164.0000;43227.2500
2165.0000;43223.1400
2166.0000;43205.4500
2167.0000;43173.0200
2168.0000;43113.9100
2169.0000;43037.7200
2170.0000;42977.7600
2171.0000;42958.7100
2172.0000;42961.8200
2173.0000;42957.1900
2174.0000;42963.6500
2175.0000;42974.5000
2176.0000;42993.1000
2177.0000;43019.2100
2178.0000;43045.6400
2179.0000;43064.4100
2180.0000;43068.7100
2181.0000;43071.4500
2182.0000;43078.9300
2183.0000;43091.3400
2184.0000;43114.6700
2185.0000;43137.2900
2186.0000;43154.3900
2187.0000;43161.9300
2188.0000;43175.2300
2189.0000;43184.6900
2190.0000;43174.2900
2191.0000;43140.9500
2192.0000;43106.9800
2193.0000;43084.6800
2194.0000;43082.6100
2195.0000;43105.2800
2196.0000;43133.4200
2197.0000;43131.5000
2198.0000;43114.2200
2199.0000;43114.5300
2200.0000;43131.1600
2201.0000;43148.0600
2202.0000;43160.1100
2203.0000;43177.4200
2204.0000;43203.9700
2205.0000;43215.0900
2206.0000;43194.6900
2207.0000;43166.4400
2208.0000;43166.5100
2209.0000;43182.4600
2210.0000;43182.7900
2211.0000;43180.0400
2212.0000;43207.6100
2213.0000;43267.3300
2214.0000;43349.0900
2215.0000;43437.7000
2216.0000;43479.9500
2217.0000;43448.8100
2218.0000;43372.1900
2219.0000;43318.9800
2220.0000;43275.3000
2221.0000;43219.7800
2222.0000;43181.6500
2223.0000;43175.6300
2224.0000;43206.4800
2225.0000;43220.1000
2226.0000;43197.0100
2227.0000;43178.4300
2228.0000;43190.2300
2229.0000;43203.7200
2230.0000;43190.3600
2231.0000;43172.8400
2232.0000;43174.9900
2233.0000;43195.2800
2234.0000;43225.8000
2235.0000;43256.3500
2236.0000;43270.4000
2237.0000;43258.7900
2238.0000;43227.7400
2239.0000;43183.7400
2240.0000;43155.1400
2241.0000;43165.9300
2242.0000;43195.6000
2243.0000;43206.6500
2244.0000;43213.0900
2245.0000;43238.3200
2246.0000;43266.4400
2247.0000;43272.6300
2248.0000;43249.1600
2249.0000;43211.8900
2250.0000;43171.1700
2251.0000;43140.6700
2252.0000;43130.1900
2253.0000;43144.4100
2254.0000;43173.4100
2255.0000;43214.4300
2256.0000;43258.6000
2257.0000;43287.1300
2258.0000;43288.7300
2259.0000;43264.7100
2260.0000;43254.9200
2261.0000;43269.7300
2262.0000;43302.5500
2263.0000;43348.9800
2264.0000;43400.0600
2265.0000;43449.5700
2266.0000;43474.9100
2267.0000;43472.9300
2268.0000;43447.7400
2269.0000;43431.1000
2270.0000;43430.8400
2271.0000;43461.2200
2272.0000;43518.2000
2273.0000;43572.4400
2274.0000;43605.9900
2275.0000;43609.6800
2276.0000;43577.6000
2277.0000;43545.1400
2278.0000;43548.0000
2279.0000;43559.0000
2280.0000;43552.4900
2281.0000;43535.4200
2282.0000;43508.2200
2283.0000;43480.0700
2284.0000;43458.4700
2285.0000;43453.4700
2286.0000;43460.3900
2287.0000;43478.8800
2288.0000;43495.3100
2289.0000;43499.9500
2290.0000;43516.1000
2291.0000;43556.2300
2292.0000;43609.1900
2293.0000;43675.3200
2294.0000;43718.4600
2295.0000;43715.1600
2296.0000;43679.1400
2297.0000;43682.1600
2298.0000;43714.4900
2299.0000;43728.7200
2300.0000;43716.5600
2301.0000;43694.5100
2302.0000;43671.5400
2303.0000;43665.7500
2304.0000;43693.6700
2305.0000;43711.4300
2306.0000;43681.1700
2307.0000;43627.4100
2308.0000;43571.4200
2309.0000;43532.3800
2310.0000;43526.6300
2311.0000;43550.6200
2312.0000;43549.8300
2313.0000;43524.1600
2314.0000;43502.2500
2315.0000;43494.2800
2316.0000;43503.9000
2317.0000;43532.1500
2318.0000;43567.5200
2319.0000;43596.8400
2320.0000;43611.7300
2321.0000;43612.4700
2322.0000;43596.8800
2323.0000;43576.0600
2324.0000;43562.9500
2325.0000;43579.4800
2326.0000;43619.1800
2327.0000;43648.7900
2328.0000;43657.6000
2329.0000;43664.5800
2330.0000;43673.3000
2331.0000;43689.7000
2332.0000;43718.7000
2333.0000;43753.3600
2334.0000;43793.9100
2335.0000;43825.9000
2336.0000;43849.2900
2337.0000;43859.9900
2338.0000;43880.2600
2339.0000;43898.3200
2340.0000;43911.7400
2341.0000;43921.8000
2342.0000;43953.1700
2343.0000;44002.4200
2344.0000;44042.7000
2345.0000;44058.8500
2346.0000;44061.5200
2347.0000;44057.2200
2348.0000;44058.2100
2349.0000;44082.4300
2350.0000;44109.9000
2351.0000;44128.6700
2352.0000;44127.7900
2353.0000;44105.4300
2354.0000;44072.2300
2355.0000;44058.2500
2356.0000;44061.8700
2357.0000;44046.7500
2358.0000;44017.4100
2359.0000;44008.2000
2360.0000;44028.0500
2361.0000;44037.4800
2362.0000;44016.0700
2363.0000;43997.3500
2364.0000;44002.1000
2365.0000;44018.0000
2366.0000;44030.8400
2367.0000;44045.4600
2368.0000;44072.0800
2369.0000;44089.7900
2370.0000;44075.7400
2371.0000;44042.1500
2372.0000;44035.7200
2373.0000;44058.2100
2374.0000;44075.0000
2375.0000;44080.5500
2376.0000;44101.8000
2377.0000;44141.9900
2378.0000;44154.0700
2379.0000;44112.4000
2380.0000;44071.1500
2381.0000;44074.3900
2382.0000;44104.9400
2383.0000;44140.7900
2384.0000;44179.7100
2385.0000;44217.8900
2386.0000;44238.7300
2387.0000;44243.4800
2388.0000;44229.5400
2389.0000;44229.1500
2390.0000;44233.0400
2391.0000;44193.4100
2392.0000;44112.8400
2393.0000;44051.9400
2394.0000;44041.8300
2395.0000;44056.7500
2396.0000;44078.3600
2397.0000;44117.0300
2398.0000;44170.8400
2399.0000;44210.2100
2400.0000;44214.3000
2401.0000;44202.9700
2402.0000;44224.3300
2403.0000;44263.0000
2404.0000;44310.6100
2405.0000;44345.8700
2406.0000;44349.8400
2407.0000;44316.2900
2408.0000;44278.9500
2409.0000;44249.9200
2410.0000;44233.7100
2411.0000;44239.0200
2412.0000;44266.8100
2413.0000;44312.7100
2414.0000;44350.9400
2415.0000;44359.5000
2416.0000;44358.7200
2417.0000;44377.9100
2418.0000;44390.1000
2419.0000;44374.1300
2420.0000;44356.7000
2421.0000;44379.8500
2422.0000;44424.2500
2423.0000;44462.8500
2424.0000;44473.8100
2425.0000;44443.9300
2426.0000;44374.0300
2427.0000;44306.0000
2428.0000;44259.6600
2429.0000;44231.7300
2430.0000;44227.9000
2431.0000;44237.2000
2432.0000;44248.8300
2433.0000;44245.7300
2434.0000;44210.3200
2435.0000;44181.8500
2436.0000;44192.2900
2437.0000;44223.9300
2438.0000;44246.8900
2439.0000;44270.9600
2440.0000;44311.7700
2441.0000;44340.0000
2442.0000;44329.8400
2443.0000;44287.1000
2444.0000;44255.0400
2445.0000;44242.2300
2446.0000;44246.1100
2447.0000;44266.0600
2448.0000;44280.2900
2449.0000;44279.9600
2450.0000;44274.1800
2451.0000;44265.8400
2452.0000;44256.2100
2453.0000;44247.3300
2454.0000;44249.8800
2455.0000;44269.6300
2456.0000;44296.2100
2457.0000;44321.8500
2458.0000;44328.8000
2459.0000;44304.7900
2460.0000;44264.4800
2461.0000;44242.4700
2462.0000;44231.5000
2463.0000;44198.6100
2464.0000;44176.9100
2465.0000;44218.6400
2466.0000;44297.4500
2467.0000;44304.3800
2468.0000;44236.4200
2469.0000;44190.0000
2470.0000;44192.7900
2471.0000;44207.1600
2472.0000;44222.2800
2473.0000;44223.5200
2474.0000;44201.5500
2475.0000;44171.2300
2476.0000;44143.8200
2477.0000;44135.2500
2478.0000;44157.0200
2479.0000;44182.9300
2480.0000;44172.4600
2481.0000;44171.2200
2482.0000;44235.3500
2483.0000;44313.0200
2484.0000;44341.8900
2485.0000;44336.3000
2486.0000;44363.5000
2487.0000;44397.7700
2488.0000;44408.9100
2489.0000;44398.0400
2490.0000;44403.4100
2491.0000;44420.9300
2492.0000;44425.2600
2493.0000;44411.7100
2494.0000;44396.3000
2495.0000;44384.5400
2496.0000;44368.0900
2497.0000;44348.1300
2498.0000;44341.9800
2499.0000;44357.3600
2500.0000;44385.4800
2501.0000;44417.3800
2502.0000;44435.4100
2503.0000;44425.5000
2504.0000;44405.3400
2505.0000;44403.8700
2506.0000;44404.6800
2507.0000;44388.4500
2508.0000;44374.7000
2509.0000;44383.2000
2510.0000;44404.9200
2511.0000;44415.5500
2512.0000;44420.7100
2513.0000;44438.9500
2514.0000;44462.1100
2515.0000;44475.4600
2516.0000;44479.5200
2517.0000;44501.8700
2518.0000;44538.1200
2519.0000;44570.1200
2520.0000;44583.6000
2521.0000;44570.5100
2522.0000;44527.7600
2523.0000;44461.3900
2524.0000;44384.8800
2525.0000;44309.6900
2526.0000;44253.9400
2527.0000;44206.9300
2528.0000;44155.0800
2529.0000;44112.6600
2530.0000;44064.7300
2531.0000;44052.1100
2532.0000;44093.7800
2533.0000;44138.9400
2534.0000;44112.6300
2535.0000;44062.8400
2536.0000;44048.6100
2537.0000;44057.4900
2538.0000;44072.1300
2539.0000;44077.8600
2540.0000;44035.8000
2541.0000;43975.4800
2542.0000;43952.4400
2543.0000;43973.1800
2544.0000;44003.0400
2545.0000;44034.0700
2546.0000;44054.4500
2547.0000;44055.1700
2548.0000;44046.6000
2549.0000;44029.6200
2550.0000;44010.8500
2551.0000;43995.0200
2552.0000;43978.2500
2553.0000;43963.4700
2554.0000;43968.9400
2555.0000;43999.2500
2556.0000;44004.0400
2557.0000;43956.6500
2558.0000;43916.3800
2559.0000;43920.8400
2560.0000;43935.3700
2561.0000;43933.7500
2562.0000;43932.3500
2563.0000;43935.9500
2564.0000;43948.2700
2565.0000;43977.5000
2566.0000;43997.6700
2567.0000;43985.2500
2568.0000;43961.4100
2569.0000;43962.6400
2570.0000;43976.6800
2571.0000;43989.8700
2572.0000;43994.5800
2573.0000;43975.0900
2574.0000;43951.4000
2575.0000;43968.7700
2576.0000;44005.3100
2577.0000;44007.7000
2578.0000;43980.5200
2579.0000;43961.3100
2580.0000;43954.0500
2581.0000;43955.3000
2582.0000;43963.5400
2583.0000;43961.2900
2584.0000;43949.2900
2585.0000;43942.2400
2586.0000;43945.5200
2587.0000;43955.3400
2588.0000;43971.3600
2589.0000;43999.9100
2590.0000;44034.1100
2591.0000;44051.5400
2592.0000;44038.2900
2593.0000;43996.2300
2594.0000;43934.3900
2595.0000;43901.5300
2596.0000;43926.9300
2597.0000;43939.9800
2598.0000;43897.1800
2599.0000;43860.4100
2600.0000;43865.1800
2601.0000;43867.6800
2602.0000;43832.5900
2603.0000;43799.2700
2604.0000;43792.5900
2605.0000;43801.6600
2606.0000;43813.7000
2607.0000;43812.0500
2608.0000;43770.1500
2609.0000;43726.9800
2610.0000;43722.2300
2611.0000;43742.7700
2612.0000;43744.6200
2613.0000;43766.3700
2614.0000;43848.7200
2615.0000;43936.6300
2616.0000;43963.2500
2617.0000;43954.0800
2618.0000;43999.9700
2619.0000;44060.4300
2620.0000;44103.3100
2621.0000;44109.9800
2622.0000;44088.9600
2623.0000;44045.5400
2624.0000;44007.7900
2625.0000;43996.3600
2626.0000;44030.0500
2627.0000;44095.3000
2628.0000;44133.7200
2629.0000;44134.8700
2630.0000;44137.8200
2631.0000;44136.6800
2632.0000;44122.3500
2633.0000;44101.2200
2634.0000;44104.1300
2635.0000;44126.9500
2636.0000;44121.0700
2637.0000;44083.5400
2638.0000;44055.7400
2639.0000;44046.8200
2640.0000;44025.6800
2641.0000;43993.7100
2642.0000;43968.3100
2643.0000;43959.2200
2644.0000;43958.9800
2645.0000;43967.1000
2646.0000;43986.9300
2647.0000;44013.9800
2648.0000;44041.8600
2649.0000;44060.3600
2650.0000;44064.4400
2651.0000;44049.1100
2652.0000;43996.3300
2653.0000;43907.0000
2654.0000;43838.0400
2655.0000;43821.5700
2656.0000;43828.0300
2657.0000;43837.8400
2658.0000;43851.3300
2659.0000;43857.6700
2660.0000;43869.0100
2661.0000;43889.5200
2662.0000;43898.2000
2663.0000;43883.0800
2664.0000;43865.7700
2665.0000;43864.5400
2666.0000;43866.4200
2667.0000;43865.0200
2668.0000;43854.5500
2669.0000;43831.0700
2670.0000;43795.8600
2671.0000;43752.1700
2672.0000;43695.1800
2673.0000;43615.5000
2674.0000;43576.5600
2675.0000;43621.7900
2676.0000;43680.6600
2677.0000;43680.5900
2678.0000;43646.6100
2679.0000;43596.8600
2680.0000;43565.9600
2681.0000;43596.6200
2682.0000;43634.2300
2683.0000;43624.5400
2684.0000;43581.5700
2685.0000;43517.5500
2686.0000;43468.2100
2687.0000;43474.4800
2688.0000;43496.4100
2689.0000;43471.6600
2690.0000;43442.1000
2691.0000;43442.2800
2692.0000;43449.7700
2693.0000;43434.6100
2694.0000;43419.7600
2695.0000;43413.0800
2696.0000;43435.0200
2697.0000;43503.8900
2698.0000;43571.8800
2699.0000;43589.4100
2700.0000;43575.9100
2701.0000;43581.0700
2702.0000;43584.5300
2703.0000;43588.9800
2704.0000;43580.1300
2705.0000;43542.8200
2706.0000;43506.7500
2707.0000;43507.1900
2708.0000;43517.7200
2709.0000;43495.4600
2710.0000;43461.0400
2711.0000;43421.7400
2712.0000;43406.4500
2713.0000;43439.5500
2714.0000;43480.2300
2715.0000;43461.2500
2716.0000;43429.6600
2717.0000;43445.5800
2718.0000;43474.3000
2719.0000;43476.4200
2720.0000;43471.0000
2721.0000;43487.5400
2722.0000;43493.3400
2723.0000;43464.8100
2724.0000;43411.7100
2725.0000;43339.7100
2726.0000;43297.1300
2727.0000;43317.8500
2728.0000;43361.2300
2729.0000;43341.4100
2730.0000;43331.3800
2731.0000;43408.5000
2732.0000;43492.0000
2733.0000;43494.3400
2734.0000;43468.1400
2735.0000;43492.5700
2736.0000;43512.6600
2737.0000;43491.2700
2738.0000;43453.0100
2739.0000;43427.9600
2740.0000;43405.2700
2741.0000;43369.2500
2742.0000;43343.6800
2743.0000;43332.7000
2744.0000;43340.9500
2745.0000;43356.8100
2746.0000;43379.3600
2747.0000;43398.6100
2748.0000;43420.0100
2749.0000;43455.5700
2750.0000;43468.7800
2751.0000;43436.4400
2752.0000;43397.0200
2753.0000;43389.7800
2754.0000;43397.2700
2755.0000;43406.5400
2756.0000;43402.5700
2757.0000;43369.3900
2758.0000;43334.9300
2759.0000;43323.1500
2760.0000;43317.5700
2761.0000;43305.6300
2762.0000;43298.5200
2763.0000;43299.2500
2764.0000;43295.9600
2765.0000;43279.7000
2766.0000;43286.2500
2767.0000;43332.6200
2768.0000;43358.4800
2769.0000;43328.7800
2770.0000;43302.6400
2771.0000;43312.5400
2772.0000;43317.5900
2773.0000;43301.8100
2774.0000;43284.4000
2775.0000;43274.1800
2776.0000;43260.0800
2777.0000;43239.1300
2778.0000;43206.2700
2779.0000;43162.7300
2780.0000;43111.9100
2781.0000;43069.2800
2782.0000;43068.7300
2783.0000;43120.3700
2784.0000;43163.6600
2785.0000;43180.7400
2786.0000;43222.8700
2787.0000;43279.0700
2788.0000;43287.3600
2789.0000;43230.6100
2790.0000;43158.9100
2791.0000;43099.0700
2792.0000;43063.2400
2793.0000;43065.0500
2794.0000;43062.8200
2795.0000;43059.5600
2796.0000;43066.7900
2797.0000;43080.6400
2798.0000;43078.2000
2799.0000;43069.9300
2800.0000;43100.5600
2801.0000;43145.8500
2802.0000;43148.4300
2803.0000;43112.2500
2804.0000;43080.1800
2805.0000;43068.1400
2806.0000;43095.4300
2807.0000;43143.5400
2808.0000;43161.7600
2809.0000;43159.3100
2810.0000;43165.3300
2811.0000;43182.2900
2812.0000;43233.6400
2813.0000;43278.9400
2814.0000;43270.6900
2815.0000;43246.8200
2816.0000;43276.5200
2817.0000;43321.3100
2818.0000;43347.2100
2819.0000;43359.7500
2820.0000;43371.8300
2821.0000;43377.6300
2822.0000;43384.0100
2823.0000;43387.0100
2824.0000;43387.4500
2825.0000;43393.0500
2826.0000;43409.4300
2827.0000;43431.5700
2828.0000;43454.0900
2829.0000;43493.1600
2830.0000;43552.4800
2831.0000;43563.9400
2832.0000;43499.2600
2833.0000;43432.7600
2834.0000;43403.0500
2835.0000;43371.6600
2836.0000;43338.2700
2837.0000;43330.9500
2838.0000;43348.4900
2839.0000;43316.0500
2840.0000;43230.9200
2841.0000;43163.2000
2842.0000;43139.1400
2843.0000;43116.6000
2844.0000;43105.2100
2845.0000;43105.2800
2846.0000;43117.3600
2847.0000;43123.1000
2848.0000;43126.3600
2849.0000;43143.2100
2850.0000;43161.6200
2851.0000;43159.5600
2852.0000;43149.4700
2853.0000;43170.6300
2854.0000;43190.7000
2855.0000;43163.1800
2856.0000;43117.7000
2857.0000;43094.0500
2858.0000;43094.3200
2859.0000;43102.8100
2860.0000;43136.1000
2861.0000;43197.6100
2862.0000;43251.0000
2863.0000;43269.9100
2864.0000;43271.7800
2865.0000;43279.2500
2866.0000;43278.4100
2867.0000;43269.6500
2868.0000;43265.6800
2869.0000;43273.3500
2870.0000;43248.7300
2871.0000;43182.7900
2872.0000;43145.3200
2873.0000;43162.2700
2874.0000;43194.1100
2875.0000;43225.1300
2876.0000;43236.8500
2877.0000;43218.4200
2878.0000;43175.3900
2879.0000;43127.9400
2880.0000;43121.1900
2881.0000;43148.4100
2882.0000;43133.8500
2883.0000;43104.8000
2884.0000;43122.5100
2885.0000;43161.8600
2886.0000;43166.1200
2887.0000;43151.7100
2888.0000;43156.8600
2889.0000;43155.3200
2890.0000;43117.0400
2891.0000;43093.8000
2892.0000;43136.8900
2893.0000;43175.4300
2894.0000;43149.1600
2895.0000;43108.1800
2896.0000;43089.1400
2897.0000;43089.2100
2898.0000;43109.8500
2899.0000;43167.0800
2900.0000;43255.5900
2901.0000;43320.6400
2902.0000;43333.6700
2903.0000;43350.9000
2904.0000;43369.5300
2905.0000;43344.0000
2906.0000;43282.0200
2907.0000;43240.8000
2908.0000;43234.2100
2909.0000;43227.8300
2910.0000;43230.2100
2911.0000;43241.4900
2912.0000;43256.4500
2913.0000;43263.0700
2914.0000;43260.1100
2915.0000;43246.3400
2916.0000;43247.4100
2917.0000;43299.7200
2918.0000;43343.3500
2919.0000;43323.7500
2920.0000;43280.9300
2921.0000;43255.1300
2922.0000;43232.5500
2923.0000;43212.1100
2924.0000;43186.3100
2925.0000;43154.5600
2926.0000;43129.5400
2927.0000;43114.7000
2928.0000;43063.9900
2929.0000;42993.3700
2930.0000;42998.6000
2931.0000;43078.3700
2932.0000;43120.1100
2933.0000;43098.4000
2934.0000;43021.0200
2935.0000;42935.5700
2936.0000;42943.5300
2937.0000;43006.8400
2938.0000;43001.2100
2939.0000;42983.9300
2940.0000;43020.8900
2941.0000;43060.9300
2942.0000;43061.2700
2943.0000;43036.0800
2944.0000;43000.1300
2945.0000;42979.8600
2946.0000;42993.8100
2947.0000;43021.2500
2948.0000;43044.7000
2949.0000;43020.3300
2950.0000;42942.3400
2951.0000;42889.6500
2952.0000;42877.8900
2953.0000;42844.1100
2954.0000;42790.8700
2955.0000;42709.3100
2956.0000;42640.0400
2957.0000;42613.9900
2958.0000;42636.0400
2959.0000;42652.6400
2960.0000;42664.0700
2961.0000;42654.8500
2962.0000;42630.6400
2963.0000;42601.7200
2964.0000;42588.3300
2965.0000;42604.7500
2966.0000;42639.8800
2967.0000;42677.5400
2968.0000;42703.4600
2969.0000;42704.0800
2970.0000;42685.8100
2971.0000;42659.3000
2972.0000;42666.0000
2973.0000;42701.2500
2974.0000;42696.2500
2975.0000;42667.5900
2976.0000;42690.4800
2977.0000;42740.8200
2978.0000;42773.0300
2979.0000;42769.7800
2980.0000;42721.4800
2981.0000;42684.5400
2982.0000;42736.4900
2983.0000;42777.6100
2984.0000;42729.0600
2985.0000;42683.2000
2986.0000;42693.1900
2987.0000;42707.4100
2988.0000;42707.9900
2989.0000;42695.5400
2990.0000;42679.2400
2991.0000;42707.9300
2992.0000;42768.2600
2993.0000;42793.8300
2994.0000;42780.8000
2995.0000;42774.8400
2996.0000;42773.4900
2997.0000;42791.0100
2998.0000;42790.9700
2999.0000;42725.5000
3000.0000;42675.2000
3001.0000;42714.2000
3002.0000;42747.4400
3003.0000;42710.5700
3004.0000;42669.1300
3005.0000;42652.1200
3006.0000;42632.9300
3007.0000;42616.2700
3008.0000;42628.6500
3009.0000;42664.9400
3010.0000;42683.8200
3011.0000;42675.2500
3012.0000;42644.0700
3013.0000;42610.6900
3014.0000;42611.3400
3015.0000;42633.3600
3016.0000;42648.0000
3017.0000;42657.8100
3018.0000;42662.7900
3019.0000;42645.3000
3020.0000;42601.6400
3021.0000;42565.2600
3022.0000;42551.0800
3023.0000;42498.0300
3024.0000;42411.2100
3025.0000;42344.1000
3026.0000;42319.5900
3027.0000;42305.1700
3028.0000;42304.8900
3029.0000;42286.0400
3030.0000;42267.8900
3031.0000;42262.5000
3032.0000;42269.0900
3033.0000;42278.8500
3034.0000;42287.3600
3035.0000;42288.8300
3036.0000;42276.1500
3037.0000;42252.6700
3038.0000;42262.1000
3039.0000;42310.1300
3040.0000;42347.4400
3041.0000;42351.9000
3042.0000;42328.0400
3043.0000;42280.7100
3044.0000;42242.3600
3045.0000;42214.2700
3046.0000;42189.6300
3047.0000;42151.2200
3048.0000;42065.6900
3049.0000;41994.7500
3050.0000;41973.2900
3051.0000;41942.4200
3052.0000;41882.9500
3053.0000;41883.5500
3054.0000;41948.5700
3055.0000;41963.3800
3056.0000;41918.8800
3057.0000;41877.9300
3058.0000;41856.3000
3059.0000;41855.6000
3060.0000;41883.2000
3061.0000;41928.2900
3062.0000;41956.8700
3063.0000;41937.6400
3064.0000;41896.7100
3065.0000;41861.4200
3066.0000;41840.9200
3067.0000;41841.2100
3068.0000;41812.6400
3069.0000;41757.6200
3070.0000;41715.1900
3071.0000;41703.7900
3072.0000;41713.5100
3073.0000;41738.9000
3074.0000;41742.1000
3075.0000;41750.7000
3076.0000;41792.1900
3077.0000;41825.1700
3078.0000;41825.1400
3079.0000;41814.5300
3080.0000;41806.5900
3081.0000;41805.1200
3082.0000;41811.1200
3083.0000;41808.0800
3084.0000;41803.5200
3085.0000;41826.0700
3086.0000;41853.1600
3087.0000;41840.5700
3088.0000;41828.4700
3089.0000;41867.5400
3090.0000;41910.2400
3091.0000;41922.2200
3092.0000;41929.8800
3093.0000;41941.9500
3094.0000;41951.7500
3095.0000;41956.7900
3096.0000;41954.2500
3097.0000;41960.5300
3098.0000;42027.9400
3099.0000;42103.8700
3100.0000;42102.2100
3101.0000;42078.8200
3102.0000;42120.2700
3103.0000;42148.7200
3104.0000;42122.5500
3105.0000;42092.5800
3106.0000;42082.6900
3107.0000;42078.9700
3108.0000;42077.6800
3109.0000;42059.8300
3110.0000;42031.7700
3111.0000;42008.7700
3112.0000;41989.9300
3113.0000;41965.3800
3114.0000;41929.2900
3115.0000;41872.1200
3116.0000;41811.2600
3117.0000;41763.5300
3118.0000;41718.3400
3119.0000;41683.7200
3120.0000;41659.0200
3121.0000;41654.2100
3122.0000;41665.8000
3123.0000;41672.7300
3124.0000;41634.6600
3125.0000;41562.3400
3126.0000;41478.0900
3127.0000;41410.2500
3128.0000;41379.3400
3129.0000;41381.3800
3130.0000;41403.8600
3131.0000;41390.5900
3132.0000;41343.5300
3133.0000;41337.2700
3134.0000;41354.1300
3135.0000;41315.9600
3136.0000;41283.4900
3137.0000;41329.1100
3138.0000;41372.8300
3139.0000;41351.1900
3140.0000;41327.1700
3141.0000;41327.9800
3142.0000;41307.4800
3143.0000;41270.2700
3144.0000;41254.0900
3145.0000;41265.8800
3146.0000;41289.2300
3147.0000;41302.7000
3148.0000;41278.5400
3149.0000;41233.0700
3150.0000;41187.2400
3151.0000;41151.1200
3152.0000;41133.1100
3153.0000;41112.4200
3154.0000;41093.5700
3155.0000;41100.8400
3156.0000;41120.0800
3157.0000;41092.9700
3158.0000;41069.6300
3159.0000;41126.6800
3160.0000;41154.7000
3161.0000;41069.3400
3162.0000;40990.7700
3163.0000;40976.0900
3164.0000;40965.8700
3165.0000;40960.2000
3166.0000;40971.0000
3167.0000;40995.6200
3168.0000;41021.6400
3169.0000;41031.2500
3170.0000;41012.8100
3171.0000;40986.4100
3172.0000;40974.9800
3173.0000;40959.2100
3174.0000;40933.4700
3175.0000;40879.0700
3176.0000;40829.0100
3177.0000;40869.7200
3178.0000;40950.2700
3179.0000;40934.4500
3180.0000;40893.7500
3181.0000;40904.7200
3182.0000;40945.1300
3183.0000;40999.2000
3184.0000;41037.4300
3185.0000;41039.0900
3186.0000;41017.8900
3187.0000;40983.3400
3188.0000;40969.2300
3189.0000;40963.6400
3190.0000;40930.5700
3191.0000;40918.9800
3192.0000;40957.2100
3193.0000;40993.1200
3194.0000;40996.7000
3195.0000;40982.4000
3196.0000;40952.5600
3197.0000;40907.3500
3198.0000;40884.6500
3199.0000;40937.6300
3200.0000;41000.6300
3201.0000;40987.5400
3202.0000;40948.3500
3203.0000;40916.2800
3204.0000;40890.5700
3205.0000;40875.3800
3206.0000;40839.1600
3207.0000;40799.1000
3208.0000;40776.0400
3209.0000;40771.3400
3210.0000;40764.1100
3211.0000;40760.7300
3212.0000;40757.6900
3213.0000;40741.8800
3214.0000;40714.6600
3215.0000;40709.1800
3216.0000;40713.9400
3217.0000;40664.6700
3218.0000;40599.9400
3219.0000;40580.3500
3220.0000;40574.6400
3221.0000;40550.0100
3222.0000;40510.3300
3223.0000;40461.9200
3224.0000;40444.7600
3225.0000;40447.9800
3226.0000;40377.8300
3227.0000;40293.3800
3228.0000;40274.3900
3229.0000;40293.6800
3230.0000;40305.4500
3231.0000;40300.8000
3232.0000;40272.3300
3233.0000;40255.4800
3234.0000;40255.9100
3235.0000;40251.7100
3236.0000;40242.5400
3237.0000;40225.4800
3238.0000;40204.6800
3239.0000;40186.3800
3240.0000;40143.1300
3241.0000;40075.8200
3242.0000;40027.2600
3243.0000;40014.5500
3244.0000;39989.3400
3245.0000;39981.0800
3246.0000;40017.9900
3247.0000;40052.8300
3248.0000;40040.0100
3249.0000;39998.6600
3250.0000;39952.1200
3251.0000;39953.1000
3252.0000;39998.0400
3253.0000;39994.1700
3254.0000;39982.6800
3255.0000;40039.0100
3256.0000;40100.1000
3257.0000;40116.2100
3258.0000;40105.3900
3259.0000;40078.1200
3260.0000;40067.0600
3261.0000;40063.9500
3262.0000;40009.2700
3263.0000;39956.1500
3264.0000;39973.3700
3265.0000;39978.6300
3266.0000;39916.5100
3267.0000;39897.3800
3268.0000;39941.8400
3269.0000;39962.0200
3270.0000;39948.5700
3271.0000;39925.9800
3272.0000;39893.6400
3273.0000;39858.1300
3274.0000;39838.7000
3275.0000;39844.1100
3276.0000;39846.7100
3277.0000;39840.3400
3278.0000;39831.0000
3279.0000;39825.2000
3280.0000;39829.6400
3281.0000;39839.3500
3282.0000;39845.8100
3283.0000;39851.5800
3284.0000;39856.5600
3285.0000;39869.1300
3286.0000;39872.8200
3287.0000;39824.6400
3288.0000;39773.1800
3289.0000;39786.5300
3290.0000;39827.5700
3291.0000;39856.7900
3292.0000;39775.0600
3293.0000;39595.6900
3294.0000;39493.9300
3295.0000;39487.8200
3296.0000;39462.8700
3297.0000;39440.8000
3298.0000;39400.6000
3299.0000;39358.6000
3300.0000;39324.7700
3301.0000;39294.5600
3302.0000;39285.9600
3303.0000;39305.8600
3304.0000;39347.2100
3305.0000;39381.4200
3306.0000;39407.2700
3307.0000;39419.3200
3308.0000;39384.9500
3309.0000;39303.5900
3310.0000;39208.2000
3311.0000;39136.5000
3312.0000;39104.6800
3313.0000;39095.6000
3314.0000;39060.8200
3315.0000;39031.9200
3316.0000;39016.7100
3317.0000;38997.1100
3318.0000;38978.6200
3319.0000;38963.2100
3320.0000;38951.6800
3321.0000;38935.4800
3322.0000;38931.7200
3323.0000;38942.3000
3324.0000;38919.4100
3325.0000;38872.7000
3326.0000;38865.6200
3327.0000;38873.5200
3328.0000;38843.1300
3329.0000;38805.0400
3330.0000;38777.6900
3331.0000;38770.9400
3332.0000;38791.9500
3333.0000;38828.9600
3334.0000;38877.1800
3335.0000;38931.0900
3336.0000;38984.4600
3337.0000;39037.8900
3338.0000;39050.5200
3339.0000;39018.7300
3340.0000;39020.2900
3341.0000;39032.6200
3342.0000;38987.6900
3343.0000;38955.6800
3344.0000;38994.7700
3345.0000;39025.6900
3346.0000;39009.4900
3347.0000;38940.8800
3348.0000;38865.8200
3349.0000;38884.1100
3350.0000;38939.0800
3351.0000;38943.8200
3352.0000;38955.7500
3353.0000;38984.8900
3354.0000;38988.2200
3355.0000;38965.3000
3356.0000;38940.5900
3357.0000;38947.5300
3358.0000;39015.6500
3359.0000;39063.6500
3360.0000;39046.8000
3361.0000;39003.1500
3362.0000;38963.4400
3363.0000;38984.1300
3364.0000;39029.6600
3365.0000;39041.8000
3366.0000;39023.9200
3367.0000;38986.1400
3368.0000;38987.1600
3369.0000;39016.0700
3370.0000;38994.6600
3371.0000;38964.5900
3372.0000;38978.7200
3373.0000;38965.2700
3374.0000;38903.7100
3375.0000;38866.8800
3376.0000;38859.2500
3377.0000;38821.7200
3378.0000;38784.3200
3379.0000;38768.2100
3380.0000;38728.2600
3381.0000;38659.3100
3382.0000;38624.3600
3383.0000;38628.2000
3384.0000;38599.7100
3385.0000;38595.1800
3386.0000;38653.0500
3387.0000;38675.8800
3388.0000;38630.1500
3389.0000;38606.9800
3390.0000;38608.7600
3391.0000;38609.2900
3392.0000;38585.3200
3393.0000;38515.1200
3394.0000;38481.7000
3395.0000;38501.7500
3396.0000;38455.9300
3397.0000;38387.2000
3398.0000;38387.1200
3399.0000;38428.5600
3400.0000;38469.4500
3401.0000;38474.2900
3402.0000;38437.7200
3403.0000;38431.0500
3404.0000;38438.7700
3405.0000;38421.1200
3406.0000;38388.2400
3407.0000;38351.9100
3408.0000;38341.3900
3409.0000;38358.6900
3410.0000;38365.3300
3411.0000;38346.7300
3412.0000;38289.9700
3413.0000;38228.1100
3414.0000;38190.5300
3415.0000;38172.4500
3416.0000;38160.8800
3417.0000;38078.2200
3418.0000;38016.0800
3419.0000;38050.5900
3420.0000;38088.1700
3421.0000;38089.0500
3422.0000;38119.3500
3423.0000;38147.4000
3424.0000;38117.8600
3425.0000;38070.3500
3426.0000;38050.0400
3427.0000;38056.5600
3428.0000;38075.2800
3429.0000;38028.4300
3430.0000;37976.1500
3431.0000;38010.5800
3432.0000;38056.9200
3433.0000;38065.6500
3434.0000;38067.9600
3435.0000;38063.4900
3436.0000;38061.0500
3437.0000;38042.9500
3438.0000;37998.8200
3439.0000;37958.4900
3440.0000;37937.4100
3441.0000;37901.1600
3442.0000;37877.0700
3443.0000;37899.5200
3444.0000;37904.8600
3445.0000;37848.6700
3446.0000;37843.9500
3447.0000;37904.8300
3448.0000;37965.3600
3449.0000;37981.8400
3450.0000;37921.9700
3451.0000;37852.2400
3452.0000;37817.4400
3453.0000;37753.2300
3454.0000;37696.7000
3455.0000;37699.1300
3456.0000;37698.7000
3457.0000;37636.7600
3458.0000;37577.4800
3459.0000;37558.4500
3460.0000;37601.6300
3461.0000;37653.7700
3462.0000;37625.3900
3463.0000;37600.0100
3464.0000;37611.9500
3465.0000;37601.9100
3466.0000;37574.0000
3467.0000;37548.5700
3468.0000;37534.1500
3469.0000;37533.3000
3470.0000;37542.2400
3471.0000;37548.6400
3472.0000;37523.9000
3473.0000;37481.1900
3474.0000;37442.4200
3475.0000;37416.9400
3476.0000;37411.8100
3477.0000;37428.3600
3478.0000;37426.0000
3479.0000;37322.1000
3480.0000;37248.2300
3481.0000;37284.5000
3482.0000;37263.8900
3483.0000;37188.3100
3484.0000;37157.2500
3485.0000;37155.3200
3486.0000;37146.2900
3487.0000;37152.8600
3488.0000;37167.3600
3489.0000;37141.7900
3490.0000;37111.9100
3491.0000;37141.7500
3492.0000;37163.8000
3493.0000;37145.0500
3494.0000;37139.8000
3495.0000;37151.9000
3496.0000;37171.8400
3497.0000;37169.8000
3498.0000;37129.2500
3499.0000;37122.4900
3500.0000;37143.8600
3501.0000;37095.2900
3502.0000;37032.6400
3503.0000;37021.6800
3504.0000;36993.1700
3505.0000;36936.5900
3506.0000;36897.0500
3507.0000;36882.3600
3508.0000;36870.7000
3509.0000;36860.7000
3510.0000;36847.2800
3511.0000;36845.6900
3512.0000;36845.0200
3513.0000;36813.7500
3514.0000;36775.3500
3515.0000;36749.3200
3516.0000;36719.8900
3517.0000;36691.8500
3518.0000;36654.2300
3519.0000;36642.0800
3520.0000;36671.7800
3521.0000;36708.6300
3522.0000;36732.5600
3523.0000;36745.9600
3524.0000;36751.5000
3525.0000;36767.5500
3526.0000;36763.3100
3527.0000;36733.3700
3528.0000;36703.7300
3529.0000;36671.4900
3530.0000;36620.7500
3531.0000;36584.4900
3532.0000;36572.6100
3533.0000;36534.6300
3534.0000;36484.6900
3535.0000;36438.6100
3536.0000;36455.2500
3537.0000;36545.2400
3538.0000;36577.4800
3539.0000;36536.5000
3540.0000;36500.1100
3541.0000;36456.5100
3542.0000;36413.8300
3543.0000;36374.0700
3544.0000;36341.5600
3545.0000;36297.5100
3546.0000;36252.5700
3547.0000;36209.3700
3548.0000;36137.4800
3549.0000;36063.1600
3550.0000;36038.9800
3551.0000;36029.8100
3552.0000;35971.2300
3553.0000;35914.2000
3554.0000;35882.8500
3555.0000;35871.4800
3556.0000;35875.9300
3557.0000;35869.9100
3558.0000;35843.2600
3559.0000;35799.1200
3560.0000;35763.4400
3561.0000;35748.7000
3562.0000;35750.8100
3563.0000;35729.8500
3564.0000;35676.5700
3565.0000;35628.4300
3566.0000;35591.3100
3567.0000;35546.1900
3568.0000;35538.3300
3569.0000;35571.0300
3570.0000;35565.9500
3571.0000;35551.6400
3572.0000;35586.3500
3573.0000;35616.7000
3574.0000;35609.5400
3575.0000;35566.9700
3576.0000;35509.0200
3577.0000;35476.5500
3578.0000;35432.7100
3579.0000;35367.6100
3580.0000;35295.9600
3581.0000;35250.0000
3582.0000;35236.9300
3583.0000;35261.1100
3584.0000;35295.0600
3585.0000;35251.5700
3586.0000;35170.3300
3587.0000;35148.8600
3588.0000;35168.9300
3589.0000;35205.2600
3590.0000;35212.2900
3591.0000;35183.7700
3592.0000;35136.3900
3593.0000;35114.6400
3594.0000;35142.5900
3595.0000;35179.8700
3596.0000;35218.5200
3597.0000;35257.9100
3598.0000;35267.3600
3599.0000;35249.6100
3600.0000;35290.1200
3601.0000;35333.3900
3602.0000;35287.6800
3603.0000;35226.7200
3604.0000;35201.3400
3605.0000;35227.1800
3606.0000;35274.6200
3607.0000;35275.7700
3608.0000;35265.7000
3609.0000;35260.0900
3610.0000;35265.2800
3611.0000;35271.3500
3612.0000;35263.0700
3613.0000;35265.3400
3614.0000;35275.4800
3615.0000;35252.2900
3616.0000;35213.0500
3617.0000;35184.6800
3618.0000;35132.2800
3619.0000;35076.6600
3620.0000;35070.2800
3621.0000;35099.4100
3622.0000;35122.4500
3623.0000;35120.6400
3624.0000;35085.0900
3625.0000;35028.7500
3626.0000;34983.2400
3627.0000;34974.6300
3628.0000;35010.1300
3629.0000;35052.8000
3630.0000;35006.5700
3631.0000;34960.0800
3632.0000;34976.0400
3633.0000;34977.2700
3634.0000;34969.2400
3635.0000;34986.5000
3636.0000;34980.4800
3637.0000;34933.6200
3638.0000;34888.4400
3639.0000;34862.4000
3640.0000;34855.1700
3641.0000;34841.6800
3642.0000;34805.1600
3643.0000;34740.2800
3644.0000;34673.9200
3645.0000;34631.9500
3646.0000;34601.2000
3647.0000;34588.6200
3648.0000;34605.0900
3649.0000;34634.5000
3650.0000;34644.3700
3651.0000;34611.0600
3652.0000;34545.3900
3653.0000;34494.7400
3654.0000;34465.0900
3655.0000;34451.1300
3656.0000;34419.6000
3657.0000;34380.0200
3658.0000;34351.6800
3659.0000;34328.8500
3660.0000;34304.0800
3661.0000;34260.2900
3662.0000;34218.2900
3663.0000;34201.5700
3664.0000;34148.2500
3665.0000;34064.0000
3666.0000;34042.9000
3667.0000;34055.1600
3668.0000;34036.2700
3669.0000;33991.1600
3670.0000;33933.5200
3671.0000;33890.8300
3672.0000;33865.2000
3673.0000;33848.3600
3674.0000;33840.3300
3675.0000;33834.9100
3676.0000;33807.6300
3677.0000;33803.3900
3678.0000;33828.8100
3679.0000;33798.4500
3680.0000;33750.8500
3681.0000;33754.7700
3682.0000;33760.5500
3683.0000;33745.9200
3684.0000;33693.9200
3685.0000;33657.0200
3686.0000;33679.3800
3687.0000;33696.2000
3688.0000;33705.9800
3689.0000;33745.3400
3690.0000;33762.6300
3691.0000;33739.9700
3692.0000;33772.0900
3693.0000;33795.8000
3694.0000;33715.4900
3695.0000;33678.9200
3696.0000;33716.3700
3697.0000;33681.2800
3698.0000;33645.5800
3699.0000;33670.5100
3700.0000;33677.7800
3701.0000;33672.8200
3702.0000;33706.9700
3703.0000;33741.1800
3704.0000;33741.5900
3705.0000;33684.1000
3706.0000;33608.0700
3707.0000;33582.5900
3708.0000;33569.6300
3709.0000;33560.4500
3710.0000;33545.7300
3711.0000;33540.6100
3712.0000;33547.7000
3713.0000;33527.8400
3714.0000;33501.1000
3715.0000;33517.7000
3716.0000;33498.9600
3717.0000;33429.2100
3718.0000;33401.3500
3719.0000;33403.4800
3720.0000;33399.0000
3721.0000;33405.9600
3722.0000;33407.0700
3723.0000;33362.1100
3724.0000;33306.8800
3725.0000;33272.2000
3726.0000;33245.7100
3727.0000;33210.4500
3728.0000;33132.3100
3729.0000;33105.2300
3730.0000;33136.8700
3731.0000;33120.8900
3732.0000;33074.3400
3733.0000;33017.7500
3734.0000;32952.1700
3735.0000;32897.2900
3736.0000;32853.6800
3737.0000;32840.3800
3738.0000;32853.5800
3739.0000;32854.9400
3740.0000;32827.4000
3741.0000;32768.5200
3742.0000;32767.2800
3743.0000;32790.8100
3744.0000;32722.7700
3745.0000;32715.8700
3746.0000;32793.6100
3747.0000;32771.1500
3748.0000;32706.5300
3749.0000;32680.6300
3750.0000;32652.1100
3751.0000;32622.4600
3752.0000;32588.8700
3753.0000;32551.2700
3754.0000;32521.3500
3755.0000;32524.5500
3756.0000;32528.0400
3757.0000;32491.4300
3758.0000;32480.0900
3759.0000;32489.9200
3760.0000;32470.0200
3761.0000;32482.0700
3762.0000;32532.7900
3763.0000;32543.7700
3764.0000;32546.7400
3765.0000;32581.1000
3766.0000;32618.9000
3767.0000;32635.8100
3768.0000;32620.5600
3769.0000;32583.4000
3770.0000;32552.4000
3771.0000;32561.0800
3772.0000;32596.6000
3773.0000;32627.0100
3774.0000;32645.6400
3775.0000;32643.4500
3776.0000;32631.3300
3777.0000;32584.8100
3778.0000;32533.5200
3779.0000;32567.2700
3780.0000;32616.5400
3781.0000;32612.2200
3782.0000;32598.3200
3783.0000;32589.9800
3784.0000;32607.7600
3785.0000;32552.9700
3786.0000;32457.3300
3787.0000;32488.9900
3788.0000;32535.5700
3789.0000;32508.8100
3790.0000;32454.9900
3791.0000;32397.2700
3792.0000;32365.0300
3793.0000;32366.6200
3794.0000;32385.6100
3795.0000;32368.1200
3796.0000;32325.3100
3797.0000;32279.9500
3798.0000;32274.1100
3799.0000;32281.1800
3800.0000;32258.3500
3801.0000;32203.3500
3802.0000;32135.2500
3803.0000;32081.8300
3804.0000;32043.7900
3805.0000;32024.3600
3806.0000;31998.9000
3807.0000;31976.7100
3808.0000;31953.7900
3809.0000;31911.8400
3810.0000;31852.8200
3811.0000;31781.0400
3812.0000;31693.6300
3813.0000;31621.8600
3814.0000;31585.8500
3815.0000;31567.3600
3816.0000;31543.6300
3817.0000;31492.1100
3818.0000;31452.9900
3819.0000;31451.7300
3820.0000;31448.9600
3821.0000;31429.8400
3822.0000;31381.8700
3823.0000;31383.5300
3824.0000;31429.6800
3825.0000;31438.9400
3826.0000;31396.7800
3827.0000;31319.8200
3828.0000;31290.1600
3829.0000;31268.8000
3830.0000;31209.8000
3831.0000;31139.7900
3832.0000;31105.8500
3833.0000;31138.7900
3834.0000;31125.3700
3835.0000;31059.7000
3836.0000;31022.3700
3837.0000;31011.0400
3838.0000;31016.3700
3839.0000;31010.3200
3840.0000;30963.2700
3841.0000;30875.0600
3842.0000;30869.8600
3843.0000;30906.8100
3844.0000;30879.4700
3845.0000;30870.4700
3846.0000;30896.1900
3847.0000;30935.0200
3848.0000;30958.3200
3849.0000;30957.7200
3850.0000;30983.2500
3851.0000;31004.4300
3852.0000;31005.4500
3853.0000;31028.9300
3854.0000;31039.8800
3855.0000;31004.7600
3856.0000;30977.9700
3857.0000;30971.0400
3858.0000;30968.7600
3859.0000;30966.5200
3860.0000;30961.7000
3861.0000;30961.3300
3862.0000;30943.8800
3863.0000;30904.8100
3864.0000;30866.9500
3865.0000;30852.6100
3866.0000;30869.2800
3867.0000;30894.9900
3868.0000;30893.7800
3869.0000;30835.4300
3870.0000;30763.0400
3871.0000;30703.5000
3872.0000;30655.3900
3873.0000;30624.3100
3874.0000;30608.6100
3875.0000;30589.2300
3876.0000;30569.4600
3877.0000;30547.7300
3878.0000;30519.8000
3879.0000;30522.6400
3880.0000;30565.4400
3881.0000;30550.0200
3882.0000;30498.9600
3883.0000;30471.4700
3884.0000;30446.6000
3885.0000;30407.5900
3886.0000;30325.0300
3887.0000;30267.3800
3888.0000;30248.9800
3889.0000;30188.0400
3890.0000;30131.5900
3891.0000;30096.8300
3892.0000;30034.9300
3893.0000;30009.8700
3894.0000;30041.6500
3895.0000;30033.9800
3896.0000;30005.3700
3897.0000;29984.2000
3898.0000;29915.2100
3899.0000;29837.2800
3900.0000;29809.0400
3901.0000;29819.6900
3902.0000;29846.8500
3903.0000;29840.2100
3904.0000;29816.4300
3905.0000;29781.7400
3906.0000;29726.3100
3907.0000;29721.0700
3908.0000;29769.7900
3909.0000;29754.4700
3910.0000;29706.7000
3911.0000;29662.5100
3912.0000;29615.4100
3913.0000;29588.6800
3914.0000;29595.7200
3915.0000;29653.2300
3916.0000;29712.7900
3917.0000;29709.9600
3918.0000;29696.0900
3919.0000;29684.8900
3920.0000;29684.8500
3921.0000;29682.6400
3922.0000;29677.2900
3923.0000;29675.7000
3924.0000;29656.9000
3925.0000;29619.9800
3926.0000;29578.2600
3927.0000;29550.6300
3928.0000;29543.7300
3929.0000;29524.1700
3930.0000;29515.3600
3931.0000;29528.5400
3932.0000;29568.7300
3933.0000;29582.0300
3934.0000;29532.1400
3935.0000;29460.6700
3936.0000;29416.4600
3937.0000;29427.5500
3938.0000;29394.2700
3939.0000;29343.1100
3940.0000;29326.2400
3941.0000;29299.8000
3942.0000;29282.8600
3943.0000;29299.4400
3944.0000;29262.8000
3945.0000;29204.3100
3946.0000;29223.3100
3947.0000;29198.4900
3948.0000;29121.9400
3949.0000;29074.9800
3950.0000;29052.4700
3951.0000;29041.1000
3952.0000;28994.9400
3953.0000;28953.7000
3954.0000;28933.8300
3955.0000;28900.7000
3956.0000;28871.1300
3957.0000;28843.6000
3958.0000;28781.1900
3959.0000;28694.0000
3960.0000;28611.6300
3961.0000;28563.0700
3962.0000;28560.7600
3963.0000;28571.9400
3964.0000;28506.5500
3965.0000;28408.8900
3966.0000;28343.5600
3967.0000;28295.4500
3968.0000;28266.0900
3969.0000;28238.3100
3970.0000;28229.6000
3971.0000;28218.5300
3972.0000;28173.0600
3973.0000;28109.9600
3974.0000;28070.5500
3975.0000;28084.8500
3976.0000;28064.7100
3977.0000;28027.2100
3978.0000;28025.2800
3979.0000;28017.5900
3980.0000;28002.2200
3981.0000;27989.1800
3982.0000;27991.2100
3983.0000;27989.4400
3984.0000;27945.9700
3985.0000;27896.8200
3986.0000;27856.2800
3987.0000;27812.1200
3988.0000;27785.8300
3989.0000;27786.5200
3990.0000;27802.6400
3991.0000;27773.1600
3992.0000;27718.1400
3993.0000;27736.6200
3994.0000;27764.9900
3995.0000;27774.5200
3996.0000;27770.3300
3997.0000;27781.4700
3998.0000;27813.5400
3999.0000;27844.1000
4000.0000;27860.3900
4001.0000;27854.4400
4002.0000;27837.3000
4003.0000;27814.4500
4004.0000;27801.1400
4005.0000;27808.9300
4006.0000;27791.6900
4007.0000;27745.0200
4008.0000;27721.7400
4009.0000;27713.3300
4010.0000;27707.5400
4011.0000;27684.7400
4012.0000;27637.4800
4013.0000;27588.7100
4014.0000;27587.2000
4015.0000;27582.7100
4016.0000;27553.2700
4017.0000;27524.2500
4018.0000;27502.7500
4019.0000;27496.3400
4020.0000;27500.5900
4021.0000;27503.6000
4022.0000;27481.4900
4023.0000;27398.1000
4024.0000;27345.2200
4025.0000;27352.7700
4026.0000;27340.0200
4027.0000;27327.6400
4028.0000;27311.3600
4029.0000;27275.8700
4030.0000;27201.9100
4031.0000;27126.4000
4032.0000;27124.6000
4033.0000;27087.2000
4034.0000;27011.9600
4035.0000;26992.6700
4036.0000;26981.5100
4037.0000;26966.9000
4038.0000;26959.1000
4039.0000;26924.1700
4040.0000;26862.8100
4041.0000;26799.1800
4042.0000;26761.4500
4043.0000;26749.9700
4044.0000;26724.5400
4045.0000;26722.7300
4046.0000;26734.2900
4047.0000;26721.2700
4048.0000;26700.5000
4049.0000;26681.8500
4050.0000;26672.1900
4051.0000;26674.5600
4052.0000;26679.3100
4053.0000;26670.1900
4054.0000;26656.3600
4055.0000;26657.4900
4056.0000;26686.9100
4057.0000;26701.6800
4058.0000;26706.4200
4059.0000;26717.6700
4060.0000;26724.3700
4061.0000;26736.3000
4062.0000;26757.4000
4063.0000;26744.5100
4064.0000;26697.3400
4065.0000;26642.9800
4066.0000;26609.0000
4067.0000;26617.8600
4068.0000;26650.0100
4069.0000;26611.9000
4070.0000;26601.6200
4071.0000;26646.8300
4072.0000;26587.2400
4073.0000;26516.8900
4074.0000;26483.1800
4075.0000;26409.0100
4076.0000;26348.6900
4077.0000;26313.1800
4078.0000;26253.7900
4079.0000;26190.8900
4080.0000;26136.5400
4081.0000;26082.5400
4082.0000;26017.9600
4083.0000;25939.4500
4084.0000;25841.8700
4085.0000;25755.4900
4086.0000;25711.2900
4087.0000;25705.6400
4088.0000;25692.4400
4089.0000;25659.1700
4090.0000;25609.8800
4091.0000;25595.0900
4092.0000;25575.2200
4093.0000;25521.3700
4094.0000;25544.2300
4095.0000;25583.0400
4096.0000;25576.7200
4097.0000;25564.8300
4098.0000;25556.0100
4099.0000;25548.9500
4100.0000;25503.4500
4101.0000;25486.1100
4102.0000;25493.2100
4103.0000;25431.3700
4104.0000;25344.8200
4105.0000;25236.0600
4106.0000;25071.7000
4107.0000;24922.1100
4108.0000;24815.2400
4109.0000;24719.3900
4110.0000;24561.8400
4111.0000;24376.1700
4112.0000;24219.7000
4113.0000;24046.7100
4114.0000;23869.1400
4115.0000;23686.0300
4116.0000;23427.2200
4117.0000;23208.7500
4118.0000;23062.5000
4119.0000;22814.6300
4120.0000;22610.6600
4121.0000;22456.8700
4122.0000;22199.9400
4123.0000;21944.2500
4124.0000;21736.5400
4125.0000;21528.1300
4126.0000;21311.7800
4127.0000;21106.5600
4128.0000;20900.0900
4129.0000;20638.6300
4130.0000;20354.0600
4131.0000;20081.7200
4132.0000;19837.9100
4133.0000;19641.1300
4134.0000;19437.5600
4135.0000;19092.0800
4136.0000;18756.0100
4137.0000;18484.8600
4138.0000;18138.5300
4139.0000;17818.1100
4140.0000;17544.8500
4141.0000;17237.2100
4142.0000;16902.2500
4143.0000;16597.7100
4144.0000;16334.6800
4145.0000;15997.8900
4146.0000;15713.2700
4147.0000;15543.8500
4148.0000;15318.1500
4149.0000;15103.0200
4150.0000;14917.7700
4151.0000;14700.4100
4152.0000;14490.1600
4153.0000;14316.8000
4154.0000;14156.1100
4155.0000;13986.0800
4156.0000;13820.3700
4157.0000;13663.5500
4158.0000;13461.3400
4159.0000;13208.6700
4160.0000;12942.8300
4161.0000;12792.0900
4162.0000;12695.3800
4163.0000;12570.9300
4164.0000;12389.2000
4165.0000;12222.9100
4166.0000;12099.0500
4167.0000;11962.7000
4168.0000;11874.4600
4169.0000;11822.4600
4170.0000;11760.0200
4171.0000;11708.0300
4172.0000;11674.8500
4173.0000;11648.3700
4174.0000;11600.7700
4175.0000;11558.9100
4176.0000;11512.6600
4177.0000;11408.4700
4178.0000;11325.4600
4179.0000;11262.6800
4180.0000;11169.9900
4181.0000;11111.3900
4182.0000;11077.8400
4183.0000;11036.7300
4184.0000;10991.4200
4185.0000;10964.2100
4186.0000;10958.0000
4187.0000;10941.4300
4188.0000;10960.3200
4189.0000;10999.5100
4190.0000;11011.0800
4191.0000;11020.6400
4192.0000;11027.6700
4193.0000;11028.0200
4194.0000;11001.5800
4195.0000;10973.0000
4196.0000;10950.8800
4197.0000;10894.7400
4198.0000;10842.8800
4199.0000;10810.7500
4200.0000;10785.7900
4201.0000;10771.6700
4202.0000;10761.4100
4203.0000;10749.7000
4204.0000;10767.6300
4205.0000;10798.4600
4206.0000;10816.3100
4207.0000;10807.7700
4208.0000;10813.5300
4209.0000;10833.2000
4210.0000;10840.7900
4211.0000;10850.6100
4212.0000;10844.8900
4213.0000;10819.7500
4214.0000;10815.8700
4215.0000;10790.9300
4216.0000;10741.9700
4217.0000;10711.5000
4218.0000;10661.9900
4219.0000;10621.2100
4220.0000;10627.9100
4221.0000;10640.4500
4222.0000;10680.3300
4223.0000;10723.2200
4224.0000;10671.7900
4225.0000;10601.3500
4226.0000;10577.7500
4227.0000;10612.5300
4228.0000;10583.9300
4229.0000;10534.0200
4230.0000;10531.8000
4231.0000;10536.3300
4232.0000;10565.6800
4233.0000;10592.4900
4234.0000;10563.3200
4235.0000;10458.9400
4236.0000;9365.4430
4237.0000;6701.6330
4238.0000;3567.3630
