Raman Shift ; Dark Subtracted #1
98.0000;1811.8840
99.0000;1812.3800
100.0000;1803.3430
101.0000;1796.9820
102.0000;1809.1560
103.0000;1828.9450
104.0000;1840.4420
105.0000;1839.2850
106.0000;1838.4310
107.0000;1848.1990
108.0000;1859.3030
109.0000;1867.4100
110.0000;1870.2190
111.0000;1870.5830
112.0000;1868.4900
113.0000;1870.9460
114.0000;1890.9700
115.0000;1915.8560
116.0000;1926.1410
117.0000;1914.6550
118.0000;1904.2560
119.0000;1917.6430
120.0000;1937.7490
121.0000;1945.2600
122.0000;1939.8320
123.0000;1937.2650
124.0000;1946.0640
125.0000;1957.5400
126.0000;1969.9870
127.0000;1976.6270
128.0000;1968.8750
129.0000;1944.4830
130.0000;1929.0270
131.0000;1949.7420
132.0000;1985.3990
133.0000;2004.6100
134.0000;2002.5640
135.0000;2001.5360
136.0000;2014.3880
137.0000;2029.0630
138.0000;2041.0590
139.0000;2048.6350
140.0000;2059.8330
141.0000;2074.9080
142.0000;2082.3330
143.0000;2080.9570
144.0000;2065.5750
145.0000;2039.6290
146.0000;2006.5170
147.0000;1980.0280
148.0000;1969.2730
149.0000;1971.9800
150.0000;1974.4900
151.0000;1980.2410
152.0000;1983.9930
153.0000;1983.4720
154.0000;1979.5780
155.0000;1974.4690
156.0000;1966.3590
157.0000;1953.2760
158.0000;1937.9850
159.0000;1928.1650
160.0000;1928.6010
161.0000;1934.4820
162.0000;1936.4490
163.0000;1936.0210
164.0000;1933.6660
165.0000;1929.4770
166.0000;1925.7600
167.0000;1924.1210
168.0000;1924.7910
169.0000;1926.0130
170.0000;1928.3470
171.0000;1932.0730
172.0000;1936.5510
173.0000;1943.4820
174.0000;1955.7980
175.0000;1969.0310
176.0000;1980.1380
177.0000;1986.3390
178.0000;1987.5020
179.0000;1984.8580
180.0000;1980.2580
181.0000;1981.9160
182.0000;1987.8600
183.0000;1990.9220
184.0000;1988.0300
185.0000;1983.7450
186.0000;1981.9270
187.0000;1982.2980
188.0000;1984.3470
189.0000;1988.0810
190.0000;1992.1820
191.0000;1995.3690
192.0000;1998.1570
193.0000;2000.5080
194.0000;2003.9410
195.0000;2015.5870
196.0000;2035.8280
197.0000;2047.0450
198.0000;2037.8530
199.0000;2018.1680
200.0000;2005.3580
201.0000;2002.1940
202.0000;2006.8920
203.0000;2019.8330
204.0000;2032.6050
205.0000;2037.3950
206.0000;2031.8700
207.0000;2016.4130
208.0000;1994.6970
209.0000;1984.5900
210.0000;1998.2150
211.0000;2022.6600
212.0000;2037.2580
213.0000;2044.3750
214.0000;2052.4620
215.0000;2060.8690
216.0000;2066.7900
217.0000;2070.2030
218.0000;2071.4170
219.0000;2076.4570
220.0000;2083.0850
221.0000;2088.0030
222.0000;2089.6900
223.0000;2090.4040
224.0000;2093.6770
225.0000;2097.1490
226.0000;2102.1130
227.0000;2106.0810
228.0000;2102.3850
229.0000;2087.0780
230.0000;2074.9220
231.0000;2083.3400
232.0000;2102.4090
233.0000;2110.9970
234.0000;2104.9460
235.0000;2098.4950
236.0000;2100.8250
237.0000;2103.6070
238.0000;2098.9830
239.0000;2091.8230
240.0000;2092.7640
241.0000;2103.2830
242.0000;2106.1490
243.0000;2084.1830
244.0000;2062.6720
245.0000;2070.4670
246.0000;2100.3700
247.0000;2120.8410
248.0000;2118.9170
249.0000;2113.6240
250.0000;2121.2970
251.0000;2131.5900
252.0000;2137.9650
253.0000;2140.0230
254.0000;2143.7140
255.0000;2151.0210
256.0000;2156.0000
257.0000;2156.0910
258.0000;2152.6610
259.0000;2151.9170
260.0000;2153.5800
261.0000;2153.9040
262.0000;2151.1980
263.0000;2149.9530
264.0000;2154.3680
265.0000;2161.4420
266.0000;2165.0520
267.0000;2165.2860
268.0000;2169.8670
269.0000;2183.4380
270.0000;2195.4700
271.0000;2197.2750
272.0000;2192.2820
273.0000;2192.8640
274.0000;2199.7020
275.0000;2208.5870
276.0000;2217.4560
277.0000;2223.3480
278.0000;2226.1360
279.0000;2223.5380
280.0000;2217.6430
281.0000;2209.9810
282.0000;2205.9580
283.0000;2209.6500
284.0000;2218.5370
285.0000;2229.9580
286.0000;2239.1740
287.0000;2238.6650
288.0000;2227.3560
289.0000;2224.3920
290.0000;2243.8120
291.0000;2264.2430
292.0000;2264.9870
293.0000;2251.9760
294.0000;2247.3800
295.0000;2254.1410
296.0000;2258.1660
297.0000;2250.8950
298.0000;2244.4250
299.0000;2250.8900
300.0000;2266.3630
301.0000;2282.0150
302.0000;2293.1080
303.0000;2295.6590
304.0000;2285.4300
305.0000;2275.5530
306.0000;2285.1190
307.0000;2305.9810
308.0000;2322.5020
309.0000;2329.0320
310.0000;2327.8570
311.0000;2317.7460
312.0000;2311.3070
313.0000;2330.1670
314.0000;2358.8410
315.0000;2365.8870
316.0000;2347.4110
317.0000;2339.4520
318.0000;2365.3600
319.0000;2393.7020
320.0000;2395.7160
321.0000;2384.4100
322.0000;2390.9900
323.0000;2413.4750
324.0000;2425.8380
325.0000;2414.4810
326.0000;2398.1640
327.0000;2397.5920
328.0000;2405.4040
329.0000;2410.3090
330.0000;2412.1280
331.0000;2415.9680
332.0000;2423.2340
333.0000;2430.3330
334.0000;2436.2950
335.0000;2439.1700
336.0000;2440.9750
337.0000;2440.7100
338.0000;2440.7670
339.0000;2442.0990
340.0000;2442.6300
341.0000;2440.5000
342.0000;2438.6430
343.0000;2442.4770
344.0000;2448.6040
345.0000;2444.9250
346.0000;2428.8380
347.0000;2422.0160
348.0000;2442.5020
349.0000;2470.1880
350.0000;2476.1090
351.0000;2466.7990
352.0000;2467.7340
353.0000;2482.6680
354.0000;2496.5880
355.0000;2502.5170
356.0000;2499.2100
357.0000;2487.0630
358.0000;2471.3490
359.0000;2467.5870
360.0000;2478.3670
361.0000;2491.3850
362.0000;2498.5290
363.0000;2503.5590
364.0000;2510.8280
365.0000;2514.7330
366.0000;2512.5990
367.0000;2506.0120
368.0000;2507.3090
369.0000;2521.5570
370.0000;2535.8150
371.0000;2541.1390
372.0000;2536.0450
373.0000;2521.2990
374.0000;2501.9230
375.0000;2494.0710
376.0000;2504.2510
377.0000;2514.4170
378.0000;2508.2150
379.0000;2502.5300
380.0000;2515.5440
381.0000;2535.4010
382.0000;2542.5580
383.0000;2531.9570
384.0000;2515.1220
385.0000;2499.0600
386.0000;2489.0870
387.0000;2493.4030
388.0000;2504.4280
389.0000;2501.6460
390.0000;2487.9650
391.0000;2481.1360
392.0000;2488.5170
393.0000;2493.1430
394.0000;2479.3710
395.0000;2465.0690
396.0000;2468.9470
397.0000;2487.0840
398.0000;2502.9700
399.0000;2510.6380
400.0000;2511.0810
401.0000;2503.2460
402.0000;2493.6140
403.0000;2493.2500
404.0000;2497.7740
405.0000;2499.4870
406.0000;2497.6100
407.0000;2492.3070
408.0000;2483.4560
409.0000;2478.5930
410.0000;2484.1750
411.0000;2493.3060
412.0000;2498.1530
413.0000;2495.3710
414.0000;2480.4540
415.0000;2455.7830
416.0000;2441.8850
417.0000;2450.6600
418.0000;2472.9430
419.0000;2500.6750
420.0000;2518.7630
421.0000;2505.5090
422.0000;2464.1840
423.0000;2433.0110
424.0000;2428.9490
425.0000;2438.0990
426.0000;2450.4040
427.0000;2462.1700
428.0000;2458.0820
429.0000;2444.7550
430.0000;2442.6340
431.0000;2453.6660
432.0000;2461.8350
433.0000;2459.4430
434.0000;2451.4910
435.0000;2442.5900
436.0000;2433.1480
437.0000;2424.7370
438.0000;2419.2260
439.0000;2413.4270
440.0000;2407.7460
441.0000;2400.3400
442.0000;2388.5840
443.0000;2380.2990
444.0000;2378.9690
445.0000;2384.7400
446.0000;2389.6380
447.0000;2393.5670
448.0000;2398.8540
449.0000;2405.1490
450.0000;2407.1540
451.0000;2400.7560
452.0000;2393.7040
453.0000;2398.6070
454.0000;2408.5430
455.0000;2407.6230
456.0000;2395.7960
457.0000;2388.3840
458.0000;2392.1530
459.0000;2403.6790
460.0000;2422.1240
461.0000;2437.6990
462.0000;2438.4170
463.0000;2429.3680
464.0000;2436.5850
465.0000;2460.4540
466.0000;2468.7160
467.0000;2446.1220
468.0000;2420.3320
469.0000;2418.2920
470.0000;2428.5330
471.0000;2434.1090
472.0000;2434.5450
473.0000;2426.0780
474.0000;2409.9250
475.0000;2402.4260
476.0000;2414.3480
477.0000;2428.6670
478.0000;2427.2900
479.0000;2418.3670
480.0000;2413.4840
481.0000;2412.0610
482.0000;2409.7570
483.0000;2407.0320
484.0000;2409.5950
485.0000;2420.4480
486.0000;2430.0000
487.0000;2426.5710
488.0000;2418.7750
489.0000;2423.7190
490.0000;2436.2570
491.0000;2440.5560
492.0000;2432.3060
493.0000;2415.8220
494.0000;2394.3600
495.0000;2379.0000
496.0000;2378.8230
497.0000;2392.1190
498.0000;2403.9350
499.0000;2413.3160
500.0000;2420.9180
501.0000;2424.3080
502.0000;2427.0190
503.0000;2431.9300
504.0000;2430.1280
505.0000;2413.6590
506.0000;2395.4850
507.0000;2394.5800
508.0000;2409.0850
509.0000;2423.5430
510.0000;2432.2150
511.0000;2433.4920
512.0000;2424.3990
513.0000;2415.9330
514.0000;2421.3170
515.0000;2430.1550
516.0000;2428.1990
517.0000;2419.6960
518.0000;2415.1820
519.0000;2417.6850
520.0000;2428.3310
521.0000;2447.3500
522.0000;2459.6340
523.0000;2453.2580
524.0000;2437.7370
525.0000;2429.0010
526.0000;2427.9200
527.0000;2436.4680
528.0000;2450.8330
529.0000;2447.7270
530.0000;2419.0890
531.0000;2396.9200
532.0000;2404.1630
533.0000;2421.1960
534.0000;2420.1390
535.0000;2414.6170
536.0000;2423.5850
537.0000;2442.0830
538.0000;2453.0900
539.0000;2450.8570
540.0000;2442.0340
541.0000;2430.4890
542.0000;2424.0120
543.0000;2433.7770
544.0000;2447.8130
545.0000;2446.1570
546.0000;2433.3840
547.0000;2427.1710
548.0000;2429.0800
549.0000;2425.1920
550.0000;2410.8680
551.0000;2399.1270
552.0000;2397.5840
553.0000;2404.2490
554.0000;2412.1670
555.0000;2421.8120
556.0000;2433.1510
557.0000;2440.5220
558.0000;2435.5540
559.0000;2416.5430
560.0000;2400.7770
561.0000;2399.1120
562.0000;2410.0410
563.0000;2433.9360
564.0000;2454.7480
565.0000;2449.7830
566.0000;2423.3350
567.0000;2402.2690
568.0000;2392.9970
569.0000;2387.4620
570.0000;2384.5490
571.0000;2383.8530
572.0000;2381.5610
573.0000;2380.3810
574.0000;2380.3720
575.0000;2380.4080
576.0000;2376.4170
577.0000;2370.5230
578.0000;2366.9810
579.0000;2368.3500
580.0000;2377.8140
581.0000;2395.8420
582.0000;2411.1010
583.0000;2414.7050
584.0000;2409.3330
585.0000;2404.4770
586.0000;2400.7060
587.0000;2403.2670
588.0000;2412.3160
589.0000;2423.5320
590.0000;2434.0230
591.0000;2439.5320
592.0000;2437.8090
593.0000;2431.6490
594.0000;2426.2300
595.0000;2423.0550
596.0000;2426.7330
597.0000;2433.0960
598.0000;2430.9020
599.0000;2420.8050
600.0000;2415.2580
601.0000;2418.0990
602.0000;2420.2520
603.0000;2416.2970
604.0000;2413.7460
605.0000;2419.5300
606.0000;2426.2390
607.0000;2426.7300
608.0000;2418.2030
609.0000;2398.5420
610.0000;2372.3360
611.0000;2356.8370
612.0000;2358.9870
613.0000;2359.5500
614.0000;2345.6940
615.0000;2332.1160
616.0000;2325.2070
617.0000;2325.6250
618.0000;2327.5360
619.0000;2332.1970
620.0000;2335.4900
621.0000;2337.2440
622.0000;2341.1700
623.0000;2346.8520
624.0000;2344.4940
625.0000;2329.1100
626.0000;2319.0580
627.0000;2332.2800
628.0000;2351.9180
629.0000;2354.2780
630.0000;2345.9700
631.0000;2341.8150
632.0000;2343.2070
633.0000;2351.4320
634.0000;2364.0890
635.0000;2366.5030
636.0000;2350.5500
637.0000;2333.9910
638.0000;2328.9670
639.0000;2334.8910
640.0000;2352.7420
641.0000;2367.7910
642.0000;2352.3380
643.0000;2319.2840
644.0000;2315.1590
645.0000;2344.8320
646.0000;2370.6300
647.0000;2378.1690
648.0000;2370.4600
649.0000;2348.0900
650.0000;2325.9140
651.0000;2320.1550
652.0000;2329.5340
653.0000;2347.1810
654.0000;2365.0850
655.0000;2359.6040
656.0000;2335.5060
657.0000;2331.4150
658.0000;2355.2400
659.0000;2374.3750
660.0000;2373.0810
661.0000;2362.3040
662.0000;2348.4520
663.0000;2339.6980
664.0000;2349.0580
665.0000;2365.0590
666.0000;2366.8500
667.0000;2356.3380
668.0000;2344.0240
669.0000;2333.6430
670.0000;2330.1880
671.0000;2336.1990
672.0000;2340.3890
673.0000;2335.4470
674.0000;2332.5880
675.0000;2340.1890
676.0000;2350.1740
677.0000;2353.9110
678.0000;2353.4060
679.0000;2356.7460
680.0000;2359.4950
681.0000;2353.3910
682.0000;2339.6260
683.0000;2329.7960
684.0000;2329.0660
685.0000;2330.7260
686.0000;2330.5300
687.0000;2333.4190
688.0000;2342.9350
689.0000;2348.4130
690.0000;2336.7270
691.0000;2319.7030
692.0000;2321.4880
693.0000;2334.4960
694.0000;2330.6960
695.0000;2309.2850
696.0000;2289.1950
697.0000;2279.5630
698.0000;2274.1970
699.0000;2270.5640
700.0000;2275.2650
701.0000;2288.2980
702.0000;2305.0040
703.0000;2322.2370
704.0000;2329.0940
705.0000;2318.8010
706.0000;2296.8020
707.0000;2288.7920
708.0000;2296.4530
709.0000;2303.3250
710.0000;2304.8620
711.0000;2303.6440
712.0000;2299.7700
713.0000;2297.1480
714.0000;2299.0000
715.0000;2303.8070
716.0000;2311.2580
717.0000;2315.9110
718.0000;2311.8570
719.0000;2302.9060
720.0000;2299.9920
721.0000;2302.5140
722.0000;2301.1150
723.0000;2296.7100
724.0000;2301.1280
725.0000;2316.1850
726.0000;2318.8980
727.0000;2296.0160
728.0000;2273.7450
729.0000;2275.0790
730.0000;2286.4670
731.0000;2289.0440
732.0000;2289.2510
733.0000;2291.9460
734.0000;2294.0310
735.0000;2293.2990
736.0000;2288.1730
737.0000;2277.6760
738.0000;2263.4900
739.0000;2252.0760
740.0000;2247.9990
741.0000;2252.7450
742.0000;2266.1520
743.0000;2280.9040
744.0000;2290.8000
745.0000;2292.0650
746.0000;2285.6930
747.0000;2274.2230
748.0000;2270.7420
749.0000;2270.6170
750.0000;2258.9530
751.0000;2241.4210
752.0000;2236.2910
753.0000;2247.0220
754.0000;2253.2440
755.0000;2248.7200
756.0000;2253.2330
757.0000;2276.9660
758.0000;2292.2930
759.0000;2279.1250
760.0000;2256.6810
761.0000;2248.8690
762.0000;2248.0860
763.0000;2242.8440
764.0000;2239.8680
765.0000;2244.1440
766.0000;2252.4110
767.0000;2250.5750
768.0000;2240.2020
769.0000;2240.3140
770.0000;2255.1500
771.0000;2270.2630
772.0000;2278.9520
773.0000;2283.7810
774.0000;2286.7210
775.0000;2285.6760
776.0000;2283.8280
777.0000;2278.9310
778.0000;2269.9350
779.0000;2262.5650
780.0000;2261.2160
781.0000;2268.7470
782.0000;2283.2290
783.0000;2300.6780
784.0000;2312.6870
785.0000;2315.3100
786.0000;2316.6420
787.0000;2318.4380
788.0000;2324.6660
789.0000;2337.4320
790.0000;2343.5240
791.0000;2334.5470
792.0000;2322.1530
793.0000;2318.5210
794.0000;2317.3860
795.0000;2312.5440
796.0000;2305.3700
797.0000;2289.7800
798.0000;2277.8950
799.0000;2286.4850
800.0000;2308.2210
801.0000;2311.6850
802.0000;2293.4720
803.0000;2274.9340
804.0000;2263.9240
805.0000;2265.0840
806.0000;2281.5790
807.0000;2295.4700
808.0000;2295.2890
809.0000;2286.6880
810.0000;2274.0770
811.0000;2265.1150
812.0000;2268.4710
813.0000;2279.9270
814.0000;2290.4990
815.0000;2298.2460
816.0000;2302.3360
817.0000;2299.1780
818.0000;2289.5760
819.0000;2276.2650
820.0000;2266.7590
821.0000;2263.9160
822.0000;2258.8800
823.0000;2251.5730
824.0000;2245.1640
825.0000;2241.4720
826.0000;2244.9740
827.0000;2257.0940
828.0000;2271.6770
829.0000;2284.4080
830.0000;2288.8340
831.0000;2283.0920
832.0000;2270.8130
833.0000;2262.4540
834.0000;2257.0590
835.0000;2246.1120
836.0000;2243.3810
837.0000;2267.7680
838.0000;2305.6500
839.0000;2313.5500
840.0000;2291.9630
841.0000;2287.4160
842.0000;2305.4130
843.0000;2321.8840
844.0000;2328.2280
845.0000;2333.0160
846.0000;2337.9190
847.0000;2338.9480
848.0000;2335.3760
849.0000;2334.3010
850.0000;2344.5360
851.0000;2347.6930
852.0000;2324.4870
853.0000;2302.1920
854.0000;2313.7400
855.0000;2337.5440
856.0000;2332.9170
857.0000;2317.1200
858.0000;2325.6190
859.0000;2347.3150
860.0000;2349.6830
861.0000;2335.0220
862.0000;2331.7680
863.0000;2341.6840
864.0000;2348.2690
865.0000;2347.7950
866.0000;2351.5030
867.0000;2361.6810
868.0000;2369.0440
869.0000;2369.0660
870.0000;2361.5320
871.0000;2345.7190
872.0000;2340.6080
873.0000;2362.6190
874.0000;2388.7910
875.0000;2394.5930
876.0000;2390.3920
877.0000;2398.1350
878.0000;2398.9650
879.0000;2373.0740
880.0000;2343.0780
881.0000;2347.1020
882.0000;2375.7010
883.0000;2389.6740
884.0000;2388.0280
885.0000;2386.2900
886.0000;2383.2140
887.0000;2376.6290
888.0000;2366.9790
889.0000;2353.6190
890.0000;2339.4920
891.0000;2330.9300
892.0000;2331.5460
893.0000;2330.9030
894.0000;2323.4080
895.0000;2324.6690
896.0000;2342.9030
897.0000;2355.9410
898.0000;2344.5050
899.0000;2335.3450
900.0000;2355.9120
901.0000;2380.3670
902.0000;2385.9590
903.0000;2377.3590
904.0000;2366.0630
905.0000;2355.1580
906.0000;2354.5320
907.0000;2359.3840
908.0000;2352.6670
909.0000;2342.3140
910.0000;2341.7110
911.0000;2353.0770
912.0000;2375.3600
913.0000;2398.1260
914.0000;2400.0250
915.0000;2376.8060
916.0000;2355.8660
917.0000;2346.3710
918.0000;2344.0010
919.0000;2349.6530
920.0000;2357.7140
921.0000;2364.1900
922.0000;2373.7500
923.0000;2387.4240
924.0000;2396.6810
925.0000;2397.6020
926.0000;2393.5810
927.0000;2390.1880
928.0000;2386.0340
929.0000;2381.8170
930.0000;2381.0480
931.0000;2385.4590
932.0000;2393.3330
933.0000;2399.5200
934.0000;2405.8690
935.0000;2416.7140
936.0000;2426.1880
937.0000;2431.5720
938.0000;2430.5730
939.0000;2427.4390
940.0000;2422.3560
941.0000;2418.5370
942.0000;2418.3790
943.0000;2425.1230
944.0000;2434.3490
945.0000;2431.2220
946.0000;2417.4200
947.0000;2414.0270
948.0000;2423.9570
949.0000;2433.1560
950.0000;2437.9170
951.0000;2445.4140
952.0000;2453.8490
953.0000;2449.6430
954.0000;2429.1250
955.0000;2409.9430
956.0000;2402.7500
957.0000;2404.2410
958.0000;2412.9680
959.0000;2423.9690
960.0000;2431.5410
961.0000;2428.4200
962.0000;2409.5030
963.0000;2391.3120
964.0000;2387.5980
965.0000;2397.7430
966.0000;2418.6090
967.0000;2437.1140
968.0000;2436.9480
969.0000;2425.1150
970.0000;2414.0260
971.0000;2410.2500
972.0000;2426.3350
973.0000;2445.4640
974.0000;2441.5580
975.0000;2427.8890
976.0000;2434.4800
977.0000;2447.1310
978.0000;2440.2730
979.0000;2424.3650
980.0000;2423.5180
981.0000;2433.9730
982.0000;2440.1760
983.0000;2441.0900
984.0000;2438.2300
985.0000;2433.3840
986.0000;2434.0330
987.0000;2440.2210
988.0000;2445.5090
989.0000;2449.2900
990.0000;2458.0970
991.0000;2467.8280
992.0000;2462.4760
993.0000;2443.0830
994.0000;2443.3620
995.0000;2466.9500
996.0000;2478.7400
997.0000;2468.7040
998.0000;2455.5980
999.0000;2447.5190
1000.0000;2454.7630
1001.0000;2479.4720
1002.0000;2492.8540
1003.0000;2482.4110
1004.0000;2486.0090
1005.0000;2519.8470
1006.0000;2535.7790
1007.0000;2512.2880
1008.0000;2491.7480
1009.0000;2500.1100
1010.0000;2508.6320
1011.0000;2502.0320
1012.0000;2496.2700
1013.0000;2499.8170
1014.0000;2506.9860
1015.0000;2513.5540
1016.0000;2521.6790
1017.0000;2532.1220
1018.0000;2539.0880
1019.0000;2541.1140
1020.0000;2533.8660
1021.0000;2516.3870
1022.0000;2502.1860
1023.0000;2505.6460
1024.0000;2516.9260
1025.0000;2521.7970
1026.0000;2522.7040
1027.0000;2520.3450
1028.0000;2515.9290
1029.0000;2513.5150
1030.0000;2512.3330
1031.0000;2508.8080
1032.0000;2509.5670
1033.0000;2520.0610
1034.0000;2533.5430
1035.0000;2544.4600
1036.0000;2545.3400
1037.0000;2529.7090
1038.0000;2514.5170
1039.0000;2529.9760
1040.0000;2555.7200
1041.0000;2555.8340
1042.0000;2542.3560
1043.0000;2539.9100
1044.0000;2544.5620
1045.0000;2551.7610
1046.0000;2558.9450
1047.0000;2561.6910
1048.0000;2560.7150
1049.0000;2564.0160
1050.0000;2566.2550
1051.0000;2559.6660
1052.0000;2549.6150
1053.0000;2547.2980
1054.0000;2550.3870
1055.0000;2544.9170
1056.0000;2541.2580
1057.0000;2557.6500
1058.0000;2584.6410
1059.0000;2599.3160
1060.0000;2600.9040
1061.0000;2607.5850
1062.0000;2610.9650
1063.0000;2598.8460
1064.0000;2584.0090
1065.0000;2597.3390
1066.0000;2631.0310
1067.0000;2656.8790
1068.0000;2665.2700
1069.0000;2656.3810
1070.0000;2635.9320
1071.0000;2631.5160
1072.0000;2643.7530
1073.0000;2659.9360
1074.0000;2676.4960
1075.0000;2688.6960
1076.0000;2696.3610
1077.0000;2717.4140
1078.0000;2740.1450
1079.0000;2746.3560
1080.0000;2735.5540
1081.0000;2726.7410
1082.0000;2726.1660
1083.0000;2744.1840
1084.0000;2775.1580
1085.0000;2803.6100
1086.0000;2817.2860
1087.0000;2811.9590
1088.0000;2791.0040
1089.0000;2781.0390
1090.0000;2786.8030
1091.0000;2804.4580
1092.0000;2828.0670
1093.0000;2842.8250
1094.0000;2845.5680
1095.0000;2846.9900
1096.0000;2848.4850
1097.0000;2861.0170
1098.0000;2879.9400
1099.0000;2901.3940
1100.0000;2913.0520
1101.0000;2900.6880
1102.0000;2876.2800
1103.0000;2883.8930
1104.0000;2910.4080
1105.0000;2917.5200
1106.0000;2908.8640
1107.0000;2901.9060
1108.0000;2902.5010
1109.0000;2924.6480
1110.0000;2954.5510
1111.0000;2960.5310
1112.0000;2951.0630
1113.0000;2959.4150
1114.0000;2974.1300
1115.0000;2978.7180
1116.0000;2977.4830
1117.0000;2984.7910
1118.0000;2995.6560
1119.0000;3006.5100
1120.0000;3012.1690
1121.0000;3007.9610
1122.0000;3003.3970
1123.0000;3019.7060
1124.0000;3041.9870
1125.0000;3052.2280
1126.0000;3050.5020
1127.0000;3046.1140
1128.0000;3040.7050
1129.0000;3040.4240
1130.0000;3051.0000
1131.0000;3080.2870
1132.0000;3105.5890
1133.0000;3098.1610
1134.0000;3083.7250
1135.0000;3099.3710
1136.0000;3126.2940
1137.0000;3149.9580
1138.0000;3165.5720
1139.0000;3171.8000
1140.0000;3179.0150
1141.0000;3208.0900
1142.0000;3228.9600
1143.0000;3218.3890
1144.0000;3204.4920
1145.0000;3215.0890
1146.0000;3230.9990
1147.0000;3238.6430
1148.0000;3247.1530
1149.0000;3261.9500
1150.0000;3269.0960
1151.0000;3260.8770
1152.0000;3265.7240
1153.0000;3300.8550
1154.0000;3342.7260
1155.0000;3376.9490
1156.0000;3403.2680
1157.0000;3419.1700
1158.0000;3419.1430
1159.0000;3405.6260
1160.0000;3405.5530
1161.0000;3432.0230
1162.0000;3462.0440
1163.0000;3483.0730
1164.0000;3496.5200
1165.0000;3500.1770
1166.0000;3507.9680
1167.0000;3522.9260
1168.0000;3542.0960
1169.0000;3561.3030
1170.0000;3580.4300
1171.0000;3593.4090
1172.0000;3597.7790
1173.0000;3594.3170
1174.0000;3603.7530
1175.0000;3622.4900
1176.0000;3630.0350
1177.0000;3628.0920
1178.0000;3637.6900
1179.0000;3660.0310
1180.0000;3702.8480
1181.0000;3739.9780
1182.0000;3723.4920
1183.0000;3684.6560
1184.0000;3725.2500
1185.0000;3790.8070
1186.0000;3768.8530
1187.0000;3713.1170
1188.0000;3728.5880
1189.0000;3773.9640
1190.0000;3788.3700
1191.0000;3788.5580
1192.0000;3799.6140
1193.0000;3803.8400
1194.0000;3788.2560
1195.0000;3788.5140
1196.0000;3841.6730
1197.0000;3891.3830
1198.0000;3888.1000
1199.0000;3874.7460
1200.0000;3887.6990
1201.0000;3907.0180
1202.0000;3925.3150
1203.0000;3930.7670
1204.0000;3917.8720
1205.0000;3921.5310
1206.0000;3956.9080
1207.0000;3986.3570
1208.0000;3993.2300
1209.0000;4005.8920
1210.0000;4026.9560
1211.0000;4031.4120
1212.0000;4015.1990
1213.0000;4006.9770
1214.0000;4013.6770
1215.0000;4024.8840
1216.0000;4039.5100
1217.0000;4058.8530
1218.0000;4077.1470
1219.0000;4090.8110
1220.0000;4094.2410
1221.0000;4091.3190
1222.0000;4084.9540
1223.0000;4087.8720
1224.0000;4099.2570
1225.0000;4114.3150
1226.0000;4130.6950
1227.0000;4144.7130
1228.0000;4159.5210
1229.0000;4182.8470
1230.0000;4214.8600
1231.0000;4266.9190
1232.0000;4291.9450
1233.0000;4260.0610
1234.0000;4224.0750
1235.0000;4232.6670
1236.0000;4253.7010
1237.0000;4268.0720
1238.0000;4285.7850
1239.0000;4305.8670
1240.0000;4332.2690
1241.0000;4361.0420
1242.0000;4382.5350
1243.0000;4388.0860
1244.0000;4383.7240
1245.0000;4372.2920
1246.0000;4366.2230
1247.0000;4372.2260
1248.0000;4394.6410
1249.0000;4425.2880
1250.0000;4440.0530
1251.0000;4437.2490
1252.0000;4437.4270
1253.0000;4443.1060
1254.0000;4465.2510
1255.0000;4491.5330
1256.0000;4508.0690
1257.0000;4509.2690
1258.0000;4498.3870
1259.0000;4493.2770
1260.0000;4520.1700
1261.0000;4544.8250
1262.0000;4538.4510
1263.0000;4536.0840
1264.0000;4560.3060
1265.0000;4579.1550
1266.0000;4578.2050
1267.0000;4580.7380
1268.0000;4595.2960
1269.0000;4615.2000
1270.0000;4632.4740
1271.0000;4620.4230
1272.0000;4588.2740
1273.0000;4607.8670
1274.0000;4668.3090
1275.0000;4687.6490
1276.0000;4668.0560
1277.0000;4664.1420
1278.0000;4671.7510
1279.0000;4685.3530
1280.0000;4698.3370
1281.0000;4694.6120
1282.0000;4700.9610
1283.0000;4756.4610
1284.0000;4805.6010
1285.0000;4796.9900
1286.0000;4789.1320
1287.0000;4833.6210
1288.0000;4878.8460
1289.0000;4898.4950
1290.0000;4915.0830
1291.0000;4937.4850
1292.0000;4984.2500
1293.0000;5049.9180
1294.0000;5091.4340
1295.0000;5094.0160
1296.0000;5103.5800
1297.0000;5123.0610
1298.0000;5160.2770
1299.0000;5201.4520
1300.0000;5231.8450
1301.0000;5252.0390
1302.0000;5287.2850
1303.0000;5334.3200
1304.0000;5406.4300
1305.0000;5474.0830
1306.0000;5519.1620
1307.0000;5553.7130
1308.0000;5603.3800
1309.0000;5649.1850
1310.0000;5689.3040
1311.0000;5743.2840
1312.0000;5816.0110
1313.0000;5870.4780
1314.0000;5894.3720
1315.0000;5941.2340
1316.0000;6008.5350
1317.0000;6067.4730
1318.0000;6109.8350
1319.0000;6173.7640
1320.0000;6236.6870
1321.0000;6298.3580
1322.0000;6346.9520
1323.0000;6419.2590
1324.0000;6483.8550
1325.0000;6541.1390
1326.0000;6589.2460
1327.0000;6645.6270
1328.0000;6699.5530
1329.0000;6755.1280
1330.0000;6812.9330
1331.0000;6870.2550
1332.0000;6935.3210
1333.0000;6999.2930
1334.0000;7068.2910
1335.0000;7126.0840
1336.0000;7185.6280
1337.0000;7228.3320
1338.0000;7260.4190
1339.0000;7291.6990
1340.0000;7390.2510
1341.0000;7494.3330
1342.0000;7550.5190
1343.0000;7561.7510
1344.0000;7573.9000
1345.0000;7592.9430
1346.0000;7642.3200
1347.0000;7687.1870
1348.0000;7706.5480
1349.0000;7744.1560
1350.0000;7804.7250
1351.0000;7824.0130
1352.0000;7800.3690
1353.0000;7847.3770
1354.0000;7943.7700
1355.0000;7990.5300
1356.0000;7975.1010
1357.0000;7939.7200
1358.0000;7908.6670
1359.0000;7932.3310
1360.0000;7988.4400
1361.0000;8038.5000
1362.0000;8087.6930
1363.0000;8135.1300
1364.0000;8176.6680
1365.0000;8210.8990
1366.0000;8240.3240
1367.0000;8260.5550
1368.0000;8258.1320
1369.0000;8236.2290
1370.0000;8229.3530
1371.0000;8243.1880
1372.0000;8272.6070
1373.0000;8300.8400
1374.0000;8299.0660
1375.0000;8283.6100
1376.0000;8291.1840
1377.0000;8295.1190
1378.0000;8276.2860
1379.0000;8257.3930
1380.0000;8252.3640
1381.0000;8255.5880
1382.0000;8265.6440
1383.0000;8288.8300
1384.0000;8317.1730
1385.0000;8322.9440
1386.0000;8313.0710
1387.0000;8350.9810
1388.0000;8390.2770
1389.0000;8348.4820
1390.0000;8274.4000
1391.0000;8253.4980
1392.0000;8255.1760
1393.0000;8247.9590
1394.0000;8240.7490
1395.0000;8230.4790
1396.0000;8217.2660
1397.0000;8200.1880
1398.0000;8165.3000
1399.0000;8121.7450
1400.0000;8105.0080
1401.0000;8109.3610
1402.0000;8076.3470
1403.0000;8029.7250
1404.0000;8003.8100
1405.0000;7995.5480
1406.0000;7982.9900
1407.0000;7983.1050
1408.0000;7998.0450
1409.0000;8009.8410
1410.0000;8005.0700
1411.0000;7968.6720
1412.0000;7906.1320
1413.0000;7842.0230
1414.0000;7803.2160
1415.0000;7790.1660
1416.0000;7803.4790
1417.0000;7804.8640
1418.0000;7783.1740
1419.0000;7712.3810
1420.0000;7654.0570
1421.0000;7664.1900
1422.0000;7653.8430
1423.0000;7573.1180
1424.0000;7513.1770
1425.0000;7508.9390
1426.0000;7505.1400
1427.0000;7497.2440
1428.0000;7493.2090
1429.0000;7476.1900
1430.0000;7401.9700
1431.0000;7319.4210
1432.0000;7290.1610
1433.0000;7279.9630
1434.0000;7238.0740
1435.0000;7189.2740
1436.0000;7142.8210
1437.0000;7094.2490
1438.0000;7052.8730
1439.0000;7032.2060
1440.0000;7031.3580
1441.0000;6996.1400
1442.0000;6949.1760
1443.0000;6933.4910
1444.0000;6931.2830
1445.0000;6896.5210
1446.0000;6860.8820
1447.0000;6843.2550
1448.0000;6825.0470
1449.0000;6796.3260
1450.0000;6746.1210
1451.0000;6684.8350
1452.0000;6655.5410
1453.0000;6660.4120
1454.0000;6637.9250
1455.0000;6608.4850
1456.0000;6601.4750
1457.0000;6590.8770
1458.0000;6538.9990
1459.0000;6483.8230
1460.0000;6449.3530
1461.0000;6414.6380
1462.0000;6377.0720
1463.0000;6345.5590
1464.0000;6327.8680
1465.0000;6311.7820
1466.0000;6302.7100
1467.0000;6296.5360
1468.0000;6282.9400
1469.0000;6239.1400
1470.0000;6194.9900
1471.0000;6171.1210
1472.0000;6157.5680
1473.0000;6149.1930
1474.0000;6137.6100
1475.0000;6123.0440
1476.0000;6112.5440
1477.0000;6108.4320
1478.0000;6105.4830
1479.0000;6097.9750
1480.0000;6070.3380
1481.0000;6046.6600
1482.0000;6046.6190
1483.0000;6030.6340
1484.0000;5982.0660
1485.0000;5973.4660
1486.0000;6011.2380
1487.0000;5994.8790
1488.0000;5934.3420
1489.0000;5904.0630
1490.0000;5901.0540
1491.0000;5891.8450
1492.0000;5894.5320
1493.0000;5911.5200
1494.0000;5903.0740
1495.0000;5855.0050
1496.0000;5840.5380
1497.0000;5872.9340
1498.0000;5878.1000
1499.0000;5852.6830
1500.0000;5819.7490
1501.0000;5805.2700
1502.0000;5842.8610
1503.0000;5872.8700
1504.0000;5839.5110
1505.0000;5800.2390
1506.0000;5786.0590
1507.0000;5755.1230
1508.0000;5713.6360
1509.0000;5694.0040
1510.0000;5696.0700
1511.0000;5686.0580
1512.0000;5664.7920
1513.0000;5623.4470
1514.0000;5592.6850
1515.0000;5592.1300
1516.0000;5603.4360
1517.0000;5613.9810
1518.0000;5609.6630
1519.0000;5589.9770
1520.0000;5575.3000
1521.0000;5562.6440
1522.0000;5532.5200
1523.0000;5514.1860
1524.0000;5527.0090
1525.0000;5548.7850
1526.0000;5560.3900
1527.0000;5565.2150
1528.0000;5555.7770
1529.0000;5513.7750
1530.0000;5459.6450
1531.0000;5434.9680
1532.0000;5442.2060
1533.0000;5459.9130
1534.0000;5461.3160
1535.0000;5418.9530
1536.0000;5383.2660
1537.0000;5379.0220
1538.0000;5401.4520
1539.0000;5430.5750
1540.0000;5398.4030
1541.0000;5344.2350
1542.0000;5357.2750
1543.0000;5380.4090
1544.0000;5358.5640
1545.0000;5338.6960
1546.0000;5339.9900
1547.0000;5326.1810
1548.0000;5301.3340
1549.0000;5303.2130
1550.0000;5316.9710
1551.0000;5291.5570
1552.0000;5267.2350
1553.0000;5285.5800
1554.0000;5298.1920
1555.0000;5277.8310
1556.0000;5250.3520
1557.0000;5228.8840
1558.0000;5223.5330
1559.0000;5232.5530
1560.0000;5228.0680
1561.0000;5224.4710
1562.0000;5235.0030
1563.0000;5241.0500
1564.0000;5231.6700
1565.0000;5231.9650
1566.0000;5238.2480
1567.0000;5189.8070
1568.0000;5125.8210
1569.0000;5144.0550
1570.0000;5189.0880
1571.0000;5169.0910
1572.0000;5138.1940
1573.0000;5129.1810
1574.0000;5138.5550
1575.0000;5158.8920
1576.0000;5145.8400
1577.0000;5114.0120
1578.0000;5115.8440
1579.0000;5134.8370
1580.0000;5144.7680
1581.0000;5140.4720
1582.0000;5119.1060
1583.0000;5093.1290
1584.0000;5073.6660
1585.0000;5065.3480
1586.0000;5061.4040
1587.0000;5025.0150
1588.0000;5000.4900
1589.0000;5029.7820
1590.0000;5025.1110
1591.0000;4946.1560
1592.0000;4915.7740
1593.0000;4956.6740
1594.0000;4985.6300
1595.0000;4991.6670
1596.0000;4974.4960
1597.0000;4943.3270
1598.0000;4919.6710
1599.0000;4909.5890
1600.0000;4916.7280
1601.0000;4926.8620
1602.0000;4927.8160
1603.0000;4901.3940
1604.0000;4857.2940
1605.0000;4813.7300
1606.0000;4786.7920
1607.0000;4783.6670
1608.0000;4777.1760
1609.0000;4763.1400
1610.0000;4781.4770
1611.0000;4814.6180
1612.0000;4805.4380
1613.0000;4772.6780
1614.0000;4751.8040
1615.0000;4731.9250
1616.0000;4713.4160
1617.0000;4701.8180
1618.0000;4700.8240
1619.0000;4701.6580
1620.0000;4705.0000
1621.0000;4711.2120
1622.0000;4704.7150
1623.0000;4675.5640
1624.0000;4651.4740
1625.0000;4645.4560
1626.0000;4630.0660
1627.0000;4611.7520
1628.0000;4603.6610
1629.0000;4602.0760
1630.0000;4591.3870
1631.0000;4593.2720
1632.0000;4613.9430
1633.0000;4610.1020
1634.0000;4581.3460
1635.0000;4582.3790
1636.0000;4598.0230
1637.0000;4586.1920
1638.0000;4565.8530
1639.0000;4553.4780
1640.0000;4560.1780
1641.0000;4584.1240
1642.0000;4590.0200
1643.0000;4572.9390
1644.0000;4548.4280
1645.0000;4523.9220
1646.0000;4507.7180
1647.0000;4495.6580
1648.0000;4487.5720
1649.0000;4510.3890
1650.0000;4547.8000
1651.0000;4531.8190
1652.0000;4495.7030
1653.0000;4507.8260
1654.0000;4509.8640
1655.0000;4470.0260
1656.0000;4455.5900
1657.0000;4478.9210
1658.0000;4490.7040
1659.0000;4497.2960
1660.0000;4518.3880
1661.0000;4541.0450
1662.0000;4556.8960
1663.0000;4552.7260
1664.0000;4528.4320
1665.0000;4511.7400
1666.0000;4507.0420
1667.0000;4505.0590
1668.0000;4501.0160
1669.0000;4485.5980
1670.0000;4474.1500
1671.0000;4472.2550
1672.0000;4463.5240
1673.0000;4451.9290
1674.0000;4448.9070
1675.0000;4445.3490
1676.0000;4429.6220
1677.0000;4399.5120
1678.0000;4363.6360
1679.0000;4359.3580
1680.0000;4382.6150
1681.0000;4381.9790
1682.0000;4365.8960
1683.0000;4346.2590
1684.0000;4331.0420
1685.0000;4325.5830
1686.0000;4307.1000
1687.0000;4281.7930
1688.0000;4269.4970
1689.0000;4260.3570
1690.0000;4233.8460
1691.0000;4203.5860
1692.0000;4179.6710
1693.0000;4166.7770
1694.0000;4172.0540
1695.0000;4191.6110
1696.0000;4207.6670
1697.0000;4199.1210
1698.0000;4165.2820
1699.0000;4116.7990
1700.0000;4085.5600
1701.0000;4081.6200
1702.0000;4068.2900
1703.0000;4059.3270
1704.0000;4059.1980
1705.0000;4054.9120
1706.0000;4040.5180
1707.0000;4029.4660
1708.0000;4026.6450
1709.0000;4030.5930
1710.0000;4028.7510
1711.0000;4004.8650
1712.0000;3978.0600
1713.0000;3961.1940
1714.0000;3955.0960
1715.0000;3955.4350
1716.0000;3933.4700
1717.0000;3917.1320
1718.0000;3929.9830
1719.0000;3933.5810
1720.0000;3914.7930
1721.0000;3903.8390
1722.0000;3902.6790
1723.0000;3900.3800
1724.0000;3895.2200
1725.0000;3883.4270
1726.0000;3879.8160
1727.0000;3887.4970
1728.0000;3889.0780
1729.0000;3883.8230
1730.0000;3877.5260
1731.0000;3865.7890
1732.0000;3849.3530
1733.0000;3846.4630
1734.0000;3855.6960
1735.0000;3836.5940
1736.0000;3815.3640
1737.0000;3834.9840
1738.0000;3856.6690
1739.0000;3853.0560
1740.0000;3822.8940
1741.0000;3786.5950
1742.0000;3798.7730
1743.0000;3829.8030
1744.0000;3830.7040
1745.0000;3835.2550
1746.0000;3848.9690
1747.0000;3825.9850
1748.0000;3784.0220
1749.0000;3775.8660
1750.0000;3781.3390
1751.0000;3773.9300
1752.0000;3773.8220
1753.0000;3781.9970
1754.0000;3782.3550
1755.0000;3773.1490
1756.0000;3757.6200
1757.0000;3741.4200
1758.0000;3731.4600
1759.0000;3734.6700
1760.0000;3743.2380
1761.0000;3719.0200
1762.0000;3702.5410
1763.0000;3739.3410
1764.0000;3756.8060
1765.0000;3727.4140
1766.0000;3706.1720
1767.0000;3704.0000
1768.0000;3718.7820
1769.0000;3730.4050
1770.0000;3718.0990
1771.0000;3721.1980
1772.0000;3737.9750
1773.0000;3722.0150
1774.0000;3698.1950
1775.0000;3707.4220
1776.0000;3717.8160
1777.0000;3713.3880
1778.0000;3708.4570
1779.0000;3698.9450
1780.0000;3672.4580
1781.0000;3647.6510
1782.0000;3639.8250
1783.0000;3648.7380
1784.0000;3671.5450
1785.0000;3701.9340
1786.0000;3717.2630
1787.0000;3695.6820
1788.0000;3677.2880
1789.0000;3685.7760
1790.0000;3682.4860
1791.0000;3672.7190
1792.0000;3679.9830
1793.0000;3691.6890
1794.0000;3694.7330
1795.0000;3691.1950
1796.0000;3685.4030
1797.0000;3695.2980
1798.0000;3702.8360
1799.0000;3682.8130
1800.0000;3674.3790
1801.0000;3692.2700
1802.0000;3697.7310
1803.0000;3695.8540
1804.0000;3714.3760
1805.0000;3721.0040
1806.0000;3699.6260
1807.0000;3711.7930
1808.0000;3749.4590
1809.0000;3742.4720
1810.0000;3722.1130
1811.0000;3732.1560
1812.0000;3742.9570
1813.0000;3742.6330
1814.0000;3729.5730
1815.0000;3719.8650
1816.0000;3741.6850
1817.0000;3741.8550
1818.0000;3699.7000
1819.0000;3688.8640
1820.0000;3712.5840
1821.0000;3732.0190
1822.0000;3737.4530
1823.0000;3721.4070
1824.0000;3734.8630
1825.0000;3769.1770
1826.0000;3753.7000
1827.0000;3721.5760
1828.0000;3718.9620
1829.0000;3714.3610
1830.0000;3702.3840
1831.0000;3700.2380
1832.0000;3708.9470
1833.0000;3723.1130
1834.0000;3719.6010
1835.0000;3691.7650
1836.0000;3680.8050
1837.0000;3687.9180
1838.0000;3684.5280
1839.0000;3698.2460
1840.0000;3735.7970
1841.0000;3751.2450
1842.0000;3734.2090
1843.0000;3707.7240
1844.0000;3690.2460
1845.0000;3701.2160
1846.0000;3711.8420
1847.0000;3710.3690
1848.0000;3691.1700
1849.0000;3681.1390
1850.0000;3711.3900
1851.0000;3714.3090
1852.0000;3675.7820
1853.0000;3653.3540
1854.0000;3653.3450
1855.0000;3667.2080
1856.0000;3674.8000
1857.0000;3666.7490
1858.0000;3679.6860
1859.0000;3694.6560
1860.0000;3674.5220
1861.0000;3653.2370
1862.0000;3650.9930
1863.0000;3640.1800
1864.0000;3629.2420
1865.0000;3634.9790
1866.0000;3645.2880
1867.0000;3646.7670
1868.0000;3625.3150
1869.0000;3597.5280
1870.0000;3611.4260
1871.0000;3624.6930
1872.0000;3601.0510
1873.0000;3590.8020
1874.0000;3596.3220
1875.0000;3581.1870
1876.0000;3576.6010
1877.0000;3603.6260
1878.0000;3599.1550
1879.0000;3559.8500
1880.0000;3535.1970
1881.0000;3539.4020
1882.0000;3575.4190
1883.0000;3566.2870
1884.0000;3514.6650
1885.0000;3524.1910
1886.0000;3547.4930
1887.0000;3521.6450
1888.0000;3487.3100
1889.0000;3467.8130
1890.0000;3484.1180
1891.0000;3512.9780
1892.0000;3513.7580
1893.0000;3513.5560
1894.0000;3517.4840
1895.0000;3519.4630
1896.0000;3506.6050
1897.0000;3469.7840
1898.0000;3444.0730
1899.0000;3447.9850
1900.0000;3473.1540
1901.0000;3486.5490
1902.0000;3447.3590
1903.0000;3416.9580
1904.0000;3417.6700
1905.0000;3408.9200
1906.0000;3405.9070
1907.0000;3420.1410
1908.0000;3420.3280
1909.0000;3404.1660
1910.0000;3421.8600
1911.0000;3433.0450
1912.0000;3387.9080
1913.0000;3358.0140
1914.0000;3367.4750
1915.0000;3370.2120
1916.0000;3366.4970
1917.0000;3354.5310
1918.0000;3346.3690
1919.0000;3338.5640
1920.0000;3289.7240
1921.0000;3257.0460
1922.0000;3294.9480
1923.0000;3296.8340
1924.0000;3254.4060
1925.0000;3279.9870
1926.0000;3299.5200
1927.0000;3236.1540
1928.0000;3197.4930
1929.0000;3205.5290
1930.0000;3197.8960
1931.0000;3184.2930
1932.0000;3167.4400
1933.0000;3161.7200
1934.0000;3164.4500
1935.0000;3148.1120
1936.0000;3133.5470
1937.0000;3134.9140
1938.0000;3128.7700
1939.0000;3109.0000
1940.0000;3070.3950
1941.0000;3045.9910
1942.0000;3056.3140
1943.0000;3063.7980
1944.0000;3060.2090
1945.0000;3043.8910
1946.0000;3027.3240
1947.0000;3018.8500
1948.0000;2992.2610
1949.0000;2964.6470
1950.0000;2963.1590
1951.0000;2965.3610
1952.0000;2956.4570
1953.0000;2935.3970
1954.0000;2906.5010
1955.0000;2873.9670
1956.0000;2857.8880
1957.0000;2866.1210
1958.0000;2883.9250
1959.0000;2886.0420
1960.0000;2846.2420
1961.0000;2806.3850
1962.0000;2787.4180
1963.0000;2774.5520
1964.0000;2778.1560
1965.0000;2792.4610
1966.0000;2797.0220
1967.0000;2782.0000
1968.0000;2747.0010
1969.0000;2717.7040
1970.0000;2715.7210
1971.0000;2740.9420
1972.0000;2754.1510
1973.0000;2684.9450
1974.0000;2636.0030
1975.0000;2654.4310
1976.0000;2645.8520
1977.0000;2623.7190
1978.0000;2610.9270
1979.0000;2621.9610
1980.0000;2650.2300
1981.0000;2656.8130
1982.0000;2632.2480
1983.0000;2585.5900
1984.0000;2577.5360
1985.0000;2607.3390
1986.0000;2606.0960
1987.0000;2587.1900
1988.0000;2562.7700
1989.0000;2530.1350
1990.0000;2503.8250
1991.0000;2493.4320
1992.0000;2491.6930
1993.0000;2491.1110
1994.0000;2493.8920
1995.0000;2493.5780
1996.0000;2482.9280
1997.0000;2445.1450
1998.0000;2397.4800
1999.0000;2392.3710
2000.0000;2409.7310
2001.0000;2416.3320
2002.0000;2420.8940
2003.0000;2419.2100
2004.0000;2411.3670
2005.0000;2390.0270
2006.0000;2360.6210
2007.0000;2337.8310
2008.0000;2333.0370
2009.0000;2343.4620
2010.0000;2343.9930
2011.0000;2334.1700
2012.0000;2360.3560
2013.0000;2369.6260
2014.0000;2324.2620
2015.0000;2322.1450
2016.0000;2343.9890
2017.0000;2288.2230
2018.0000;2261.3930
2019.0000;2305.6390
2020.0000;2321.2110
2021.0000;2310.3490
2022.0000;2296.5500
2023.0000;2263.9920
2024.0000;2227.7780
2025.0000;2219.7200
2026.0000;2225.1030
2027.0000;2223.2540
2028.0000;2228.7640
2029.0000;2243.7110
2030.0000;2269.2020
2031.0000;2267.6070
2032.0000;2232.3260
2033.0000;2208.5200
2034.0000;2196.1140
2035.0000;2186.3080
2036.0000;2173.0040
2037.0000;2159.4080
2038.0000;2149.4880
2039.0000;2148.5670
2040.0000;2152.6650
2041.0000;2137.2380
2042.0000;2118.3420
2043.0000;2120.9760
2044.0000;2127.5290
2045.0000;2124.4060
2046.0000;2088.4830
2047.0000;2073.8130
2048.0000;2112.2950
2049.0000;2108.0250
2050.0000;2079.4640
2051.0000;2087.5550
2052.0000;2080.2050
2053.0000;2052.8280
2054.0000;2057.8190
2055.0000;2067.9550
2056.0000;2055.5130
2057.0000;2052.7170
2058.0000;2059.5240
2059.0000;2062.2320
2060.0000;2053.1410
2061.0000;2035.7390
2062.0000;2036.2130
2063.0000;2048.4780
2064.0000;2058.4670
2065.0000;2050.6830
2066.0000;2026.4160
2067.0000;1999.1970
2068.0000;1994.3200
2069.0000;2015.5380
2070.0000;2021.0160
2071.0000;2008.1810
2072.0000;1984.2170
2073.0000;1980.1940
2074.0000;1992.4980
2075.0000;1986.6050
2076.0000;1977.3490
2077.0000;1973.7060
2078.0000;1982.4020
2079.0000;1991.1590
2080.0000;1985.1750
2081.0000;1977.0950
2082.0000;1973.8440
2083.0000;1982.5570
2084.0000;1980.6910
2085.0000;1965.6910
2086.0000;1978.0970
2087.0000;1980.3580
2088.0000;1942.8670
2089.0000;1943.8530
2090.0000;1972.7920
2091.0000;1972.3780
2092.0000;1954.5990
2093.0000;1932.7040
2094.0000;1932.8460
2095.0000;1935.2950
2096.0000;1921.0520
2097.0000;1905.5990
2098.0000;1915.6520
2099.0000;1980.4570
2100.0000;1975.0910
2101.0000;1892.6270
2102.0000;1875.2270
2103.0000;1885.3140
2104.0000;1889.2440
2105.0000;1882.2810
2106.0000;1876.7120
2107.0000;1889.0370
2108.0000;1904.2560
2109.0000;1910.3470
2110.0000;1899.0700
2111.0000;1887.4820
2112.0000;1885.2550
2113.0000;1868.8650
2114.0000;1853.7900
2115.0000;1853.6730
2116.0000;1857.0180
2117.0000;1858.3220
2118.0000;1850.6450
2119.0000;1845.8960
2120.0000;1846.4390
2121.0000;1839.9170
2122.0000;1826.8450
2123.0000;1812.1940
2124.0000;1815.7290
2125.0000;1826.0310
2126.0000;1820.5400
2127.0000;1808.4070
2128.0000;1799.0900
2129.0000;1804.2790
2130.0000;1817.8050
2131.0000;1824.0770
2132.0000;1787.5620
2133.0000;1763.7630
2134.0000;1796.4810
2135.0000;1792.7690
2136.0000;1770.7680
2137.0000;1782.7810
2138.0000;1792.2450
2139.0000;1786.4910
2140.0000;1768.3300
2141.0000;1751.9770
2142.0000;1749.4150
2143.0000;1760.5360
2144.0000;1763.6140
2145.0000;1740.1210
2146.0000;1726.7550
2147.0000;1726.3750
2148.0000;1725.7720
2149.0000;1731.3510
2150.0000;1736.6090
2151.0000;1724.0040
2152.0000;1725.1280
2153.0000;1746.0270
2154.0000;1735.0140
2155.0000;1714.9560
2156.0000;1712.7180
2157.0000;1704.3010
2158.0000;1698.1490
2159.0000;1705.4820
2160.0000;1709.0670
2161.0000;1706.7030
2162.0000;1709.8000
2163.0000;1713.6090
2164.0000;1716.1190
2165.0000;1719.4820
2166.0000;1725.3420
2167.0000;1731.6090
2168.0000;1717.0490
2169.0000;1700.0330
2170.0000;1706.9310
2171.0000;1720.0290
2172.0000;1726.3930
2173.0000;1712.6720
2174.0000;1711.8570
2175.0000;1726.2410
2176.0000;1717.1780
2177.0000;1703.1130
2178.0000;1699.5560
2179.0000;1712.0540
2180.0000;1712.3110
2181.0000;1680.8380
2182.0000;1684.9600
2183.0000;1704.8270
2184.0000;1690.3690
2185.0000;1665.3740
2186.0000;1651.5700
2187.0000;1672.5790
2188.0000;1691.0740
2189.0000;1687.9470
2190.0000;1677.7910
2191.0000;1662.1680
2192.0000;1648.3180
2193.0000;1633.8550
2194.0000;1634.0980
2195.0000;1653.5880
2196.0000;1668.1660
2197.0000;1667.6540
2198.0000;1651.8530
2199.0000;1645.4820
2200.0000;1654.4120
2201.0000;1669.2560
2202.0000;1662.0020
2203.0000;1637.1290
2204.0000;1641.1970
2205.0000;1649.8810
2206.0000;1649.6330
2207.0000;1654.6150
2208.0000;1653.2330
2209.0000;1639.6870
2210.0000;1620.6840
2211.0000;1614.2090
2212.0000;1630.5800
2213.0000;1627.1190
2214.0000;1608.9820
2215.0000;1600.4530
2216.0000;1613.2560
2217.0000;1630.9940
2218.0000;1614.7170
2219.0000;1596.1340
2220.0000;1596.1830
2221.0000;1622.8000
2222.0000;1633.8840
2223.0000;1615.0480
2224.0000;1617.2670
2225.0000;1626.2900
2226.0000;1626.1100
2227.0000;1602.3800
2228.0000;1576.6120
2229.0000;1572.3430
2230.0000;1558.2870
2231.0000;1553.3060
2232.0000;1576.6920
2233.0000;1589.2030
2234.0000;1582.2280
2235.0000;1567.1900
2236.0000;1557.3890
2237.0000;1563.7470
2238.0000;1587.6320
2239.0000;1594.8200
2240.0000;1574.9890
2241.0000;1552.4780
2242.0000;1544.5180
2243.0000;1555.0480
2244.0000;1550.5050
2245.0000;1537.8990
2246.0000;1528.2060
2247.0000;1540.2400
2248.0000;1564.4860
2249.0000;1580.6670
2250.0000;1564.9520
2251.0000;1540.2290
2252.0000;1539.2820
2253.0000;1536.7070
2254.0000;1536.8900
2255.0000;1544.6680
2256.0000;1546.6060
2257.0000;1538.8850
2258.0000;1525.1280
2259.0000;1512.7590
2260.0000;1510.3400
2261.0000;1521.5600
2262.0000;1522.2200
2263.0000;1513.7830
2264.0000;1525.9110
2265.0000;1532.4750
2266.0000;1527.6490
2267.0000;1530.3470
2268.0000;1543.8530
2269.0000;1557.3910
2270.0000;1532.3730
2271.0000;1519.5310
2272.0000;1541.4430
2273.0000;1541.2860
2274.0000;1532.3830
2275.0000;1526.7070
2276.0000;1518.6620
2277.0000;1517.5830
2278.0000;1525.0900
2279.0000;1516.7850
2280.0000;1502.6150
2281.0000;1498.6010
2282.0000;1514.3260
2283.0000;1522.9550
2284.0000;1496.1390
2285.0000;1458.5980
2286.0000;1444.8820
2287.0000;1477.7740
2288.0000;1493.6690
2289.0000;1486.6260
2290.0000;1474.7850
2291.0000;1459.6790
2292.0000;1458.3220
2293.0000;1484.0160
2294.0000;1499.0240
2295.0000;1496.2760
2296.0000;1491.2960
2297.0000;1461.6900
2298.0000;1431.4040
2299.0000;1444.1430
2300.0000;1468.6850
2301.0000;1481.8540
2302.0000;1471.9110
2303.0000;1452.0230
2304.0000;1440.9660
2305.0000;1457.4070
2306.0000;1463.3590
2307.0000;1451.1460
2308.0000;1446.4530
2309.0000;1425.6410
2310.0000;1403.3070
2311.0000;1423.2770
2312.0000;1435.3390
2313.0000;1425.6250
2314.0000;1428.4970
2315.0000;1416.2010
2316.0000;1391.7750
2317.0000;1386.9050
2318.0000;1396.7990
2319.0000;1408.3880
2320.0000;1398.7250
2321.0000;1404.9040
2322.0000;1424.6870
2323.0000;1402.2270
2324.0000;1384.8710
2325.0000;1388.5200
2326.0000;1372.3630
2327.0000;1369.7580
2328.0000;1383.0340
2329.0000;1373.9880
2330.0000;1370.8610
2331.0000;1378.3400
2332.0000;1369.6640
2333.0000;1350.5630
2334.0000;1337.6530
2335.0000;1356.4250
2336.0000;1370.7480
2337.0000;1363.1470
2338.0000;1355.5650
2339.0000;1351.5200
2340.0000;1350.7240
2341.0000;1340.8090
2342.0000;1327.6270
2343.0000;1321.7340
2344.0000;1335.2930
2345.0000;1345.2470
2346.0000;1338.8860
2347.0000;1321.2320
2348.0000;1330.2660
2349.0000;1354.6070
2350.0000;1329.2300
2351.0000;1288.7500
2352.0000;1269.2310
2353.0000;1298.4080
2354.0000;1306.7370
2355.0000;1278.7120
2356.0000;1255.2060
2357.0000;1256.9990
2358.0000;1275.3160
2359.0000;1272.0320
2360.0000;1252.2360
2361.0000;1230.9450
2362.0000;1231.3060
2363.0000;1234.9310
2364.0000;1223.0330
2365.0000;1179.5520
2366.0000;1178.4760
2367.0000;1201.1380
2368.0000;1184.7100
2369.0000;1161.0570
2370.0000;1152.6550
2371.0000;1173.3340
2372.0000;1168.7430
2373.0000;1140.9330
2374.0000;1115.6320
2375.0000;1109.0860
2376.0000;1122.4420
2377.0000;1139.3320
2378.0000;1137.2430
2379.0000;1124.0160
2380.0000;1114.9940
2381.0000;1099.0160
2382.0000;1099.1420
2383.0000;1122.4060
2384.0000;1128.4700
2385.0000;1122.0060
2386.0000;1114.7270
2387.0000;1121.8660
2388.0000;1129.7900
2389.0000;1132.6670
2390.0000;1150.7390
2391.0000;1142.6960
2392.0000;1113.8880
2393.0000;1131.0460
2394.0000;1156.9630
2395.0000;1167.3970
2396.0000;1158.4770
2397.0000;1169.2960
2398.0000;1183.5440
2399.0000;1146.0550
2400.0000;1144.7990
2401.0000;1171.9410
2402.0000;1169.1800
2403.0000;1168.6170
2404.0000;1166.7340
2405.0000;1155.9750
2406.0000;1142.7120
2407.0000;1147.4940
2408.0000;1177.6600
2409.0000;1186.2500
2410.0000;1175.1560
2411.0000;1162.8130
2412.0000;1174.1990
2413.0000;1199.7430
2414.0000;1217.2560
2415.0000;1209.9070
2416.0000;1196.5650
2417.0000;1190.8260
2418.0000;1181.1240
2419.0000;1189.6560
2420.0000;1205.2780
2421.0000;1190.7640
2422.0000;1180.3110
2423.0000;1184.7380
2424.0000;1196.3870
2425.0000;1195.7530
2426.0000;1199.1980
2427.0000;1226.4080
2428.0000;1203.6440
2429.0000;1171.5980
2430.0000;1182.2370
2431.0000;1190.7990
2432.0000;1190.7760
2433.0000;1180.4420
2434.0000;1173.1370
2435.0000;1168.6530
2436.0000;1169.6190
2437.0000;1181.9710
2438.0000;1187.7370
2439.0000;1179.4500
2440.0000;1166.2390
2441.0000;1170.2090
2442.0000;1182.7650
2443.0000;1176.8380
2444.0000;1163.9980
2445.0000;1157.6120
2446.0000;1166.2910
2447.0000;1164.2720
2448.0000;1161.5490
2449.0000;1164.8340
2450.0000;1149.8480
2451.0000;1147.7190
2452.0000;1167.4930
2453.0000;1176.0340
2454.0000;1168.8430
2455.0000;1156.9090
2456.0000;1166.3980
2457.0000;1153.0750
2458.0000;1132.4080
2459.0000;1142.6910
2460.0000;1149.4480
2461.0000;1150.1720
2462.0000;1149.0010
2463.0000;1151.1940
2464.0000;1156.3280
2465.0000;1160.9740
2466.0000;1158.4770
2467.0000;1162.6410
2468.0000;1168.2400
2469.0000;1145.8270
2470.0000;1143.4830
2471.0000;1159.1590
2472.0000;1158.8380
2473.0000;1147.0490
2474.0000;1141.1060
2475.0000;1153.8660
2476.0000;1138.9410
2477.0000;1126.4840
2478.0000;1133.6950
2479.0000;1111.2170
2480.0000;1108.3710
2481.0000;1124.4660
2482.0000;1097.5170
2483.0000;1112.9060
2484.0000;1150.2530
2485.0000;1136.1250
2486.0000;1104.7650
2487.0000;1099.0790
2488.0000;1139.6080
2489.0000;1136.1330
2490.0000;1120.3870
2491.0000;1114.7650
2492.0000;1089.3040
2493.0000;1086.8240
2494.0000;1108.9930
2495.0000;1118.6030
2496.0000;1102.0580
2497.0000;1085.3530
2498.0000;1102.4190
2499.0000;1101.6670
2500.0000;1098.2450
2501.0000;1102.0780
2502.0000;1080.3800
2503.0000;1074.5180
2504.0000;1092.6210
2505.0000;1096.1030
2506.0000;1100.4130
2507.0000;1092.6390
2508.0000;1062.4030
2509.0000;1072.4060
2510.0000;1075.6340
2511.0000;1039.7230
2512.0000;1057.3330
2513.0000;1076.9410
2514.0000;1068.3870
2515.0000;1049.3990
2516.0000;1043.0570
2517.0000;1049.0970
2518.0000;1049.5110
2519.0000;1052.0250
2520.0000;1055.6360
2521.0000;1054.9240
2522.0000;1035.1100
2523.0000;1021.8070
2524.0000;1025.6550
2525.0000;1029.7120
2526.0000;1024.4340
2527.0000;1011.3330
2528.0000;1002.9480
2529.0000;1028.8390
2530.0000;1044.1150
2531.0000;1021.3330
2532.0000;1013.5220
2533.0000;1019.0010
2534.0000;1023.8200
2535.0000;1004.0560
2536.0000;1018.2660
2537.0000;1038.7760
2538.0000;1022.4240
2539.0000;1014.7700
2540.0000;1004.7910
2541.0000;993.3718
2542.0000;1000.7210
2543.0000;998.5015
2544.0000;990.6382
2545.0000;999.1992
2546.0000;1016.2310
2547.0000;1016.1750
2548.0000;990.9057
2549.0000;991.7806
2550.0000;990.5956
2551.0000;987.2892
2552.0000;1008.0170
2553.0000;1003.6070
2554.0000;985.1618
2555.0000;981.4545
2556.0000;966.0349
2557.0000;970.2750
2558.0000;993.6595
2559.0000;987.6770
2560.0000;978.0635
2561.0000;975.4950
2562.0000;981.4034
2563.0000;992.4853
2564.0000;995.8729
2565.0000;984.2968
2566.0000;966.1055
2567.0000;960.4955
2568.0000;973.8644
2569.0000;993.0686
2570.0000;983.7817
2571.0000;968.9388
2572.0000;972.0000
2573.0000;963.6270
2574.0000;964.3183
2575.0000;969.0429
2576.0000;955.3979
2577.0000;953.1064
2578.0000;968.7274
2579.0000;988.2227
2580.0000;969.7351
2581.0000;956.2375
2582.0000;967.3371
2583.0000;985.3102
2584.0000;978.3094
2585.0000;949.6849
2586.0000;924.9446
2587.0000;928.3499
2588.0000;957.7869
2589.0000;977.9294
2590.0000;944.4183
2591.0000;928.1588
2592.0000;937.4552
2593.0000;949.7043
2594.0000;927.9466
2595.0000;914.0911
2596.0000;916.3345
2597.0000;901.2564
2598.0000;892.8872
2599.0000;894.9651
2600.0000;902.8705
2601.0000;915.1911
2602.0000;903.8499
2603.0000;879.3901
2604.0000;883.4737
2605.0000;900.6389
2606.0000;912.5273
2607.0000;905.5179
2608.0000;891.4128
2609.0000;892.1016
2610.0000;901.1668
2611.0000;892.0761
2612.0000;881.7047
2613.0000;883.7306
2614.0000;892.0611
2615.0000;862.8851
2616.0000;852.8834
2617.0000;863.9631
2618.0000;867.2875
2619.0000;887.3909
2620.0000;900.5519
2621.0000;890.5294
2622.0000;867.5894
2623.0000;859.8014
2624.0000;861.1592
2625.0000;854.1846
2626.0000;854.3985
2627.0000;854.0376
2628.0000;846.4329
2629.0000;830.5132
2630.0000;817.8963
2631.0000;811.1319
2632.0000;809.2292
2633.0000;810.4583
2634.0000;820.5833
2635.0000;819.8085
2636.0000;791.0387
2637.0000;794.6057
2638.0000;795.5626
2639.0000;783.7110
2640.0000;801.1880
2641.0000;797.8156
2642.0000;786.8432
2643.0000;793.2288
2644.0000;798.7896
2645.0000;799.4741
2646.0000;793.1064
2647.0000;783.1719
2648.0000;775.5047
2649.0000;759.6151
2650.0000;738.0843
2651.0000;732.6571
2652.0000;740.4739
2653.0000;756.3265
2654.0000;767.6674
2655.0000;755.6121
2656.0000;737.7307
2657.0000;734.3146
2658.0000;749.3573
2659.0000;732.5984
2660.0000;714.9493
2661.0000;719.2028
2662.0000;720.7930
2663.0000;710.3440
2664.0000;706.7182
2665.0000;720.6240
2666.0000;703.5417
2667.0000;693.8282
2668.0000;698.7439
2669.0000;696.5275
2670.0000;681.2241
2671.0000;677.4284
2672.0000;683.1349
2673.0000;659.9877
2674.0000;650.6938
2675.0000;660.4412
2676.0000;673.5361
2677.0000;665.4171
2678.0000;662.3365
2679.0000;659.9153
2680.0000;645.3061
2681.0000;640.0557
2682.0000;634.1096
2683.0000;629.0828
2684.0000;634.1442
2685.0000;620.2759
2686.0000;615.0181
2687.0000;622.0790
2688.0000;599.3123
2689.0000;616.7463
2690.0000;627.9064
2691.0000;598.1906
2692.0000;611.5502
2693.0000;602.5095
2694.0000;590.0215
2695.0000;609.1253
2696.0000;596.0060
2697.0000;562.0717
2698.0000;545.7147
2699.0000;576.6162
2700.0000;584.8204
2701.0000;586.8695
2702.0000;586.7218
2703.0000;567.7355
2704.0000;557.0739
2705.0000;556.8410
2706.0000;556.9896
2707.0000;543.2145
2708.0000;553.2074
2709.0000;565.8848
2710.0000;554.6218
2711.0000;539.7640
2712.0000;527.4875
2713.0000;531.6957
2714.0000;552.3333
2715.0000;558.0570
2716.0000;562.3755
2717.0000;561.6346
2718.0000;549.7115
2719.0000;551.3127
2720.0000;561.0098
2721.0000;566.5846
2722.0000;560.6996
2723.0000;572.8034
2724.0000;579.1857
2725.0000;568.6902
2726.0000;557.8831
2727.0000;558.5546
2728.0000;554.2395
2729.0000;547.3012
2730.0000;569.2697
2731.0000;570.2734
2732.0000;555.5446
2733.0000;548.9602
2734.0000;565.5515
2735.0000;580.2058
2736.0000;584.7571
2737.0000;579.4201
2738.0000;567.0237
2739.0000;567.5674
2740.0000;584.3022
2741.0000;598.0204
2742.0000;572.6304
2743.0000;580.5067
2744.0000;589.6126
2745.0000;558.8821
2746.0000;558.4144
2747.0000;562.4756
2748.0000;563.9506
2749.0000;567.4582
2750.0000;590.8820
2751.0000;579.1970
2752.0000;554.1960
2753.0000;560.2336
2754.0000;547.2799
2755.0000;562.0368
2756.0000;577.9592
2757.0000;556.0000
2758.0000;561.8359
2759.0000;572.2868
2760.0000;571.8837
2761.0000;561.6667
2762.0000;571.8620
2763.0000;575.5945
2764.0000;584.1700
2765.0000;610.0000
2766.0000;593.2891
2767.0000;590.2852
2768.0000;593.1628
2769.0000;574.0000
2770.0000;588.6719
2771.0000;591.4727
2772.0000;576.7272
2773.0000;570.1045
2774.0000;593.9275
2775.0000;592.2911
2776.0000;575.2251
2777.0000;582.4822
2778.0000;607.4480
2779.0000;596.7834
2780.0000;578.6141
2781.0000;595.0082
2782.0000;592.8964
2783.0000;601.5760
2784.0000;610.1552
2785.0000;602.5745
2786.0000;594.7128
2787.0000;575.6683
2788.0000;566.5582
2789.0000;580.1561
2790.0000;588.1688
2791.0000;577.4336
2792.0000;579.5248
2793.0000;599.2328
2794.0000;575.0632
2795.0000;566.9708
2796.0000;567.8806
2797.0000;566.1494
2798.0000;569.6613
2799.0000;585.3151
2800.0000;591.7682
2801.0000;581.4238
2802.0000;574.3696
2803.0000;572.7872
2804.0000;584.5034
2805.0000;589.9544
2806.0000;564.3632
2807.0000;558.5799
2808.0000;556.7479
2809.0000;563.1024
2810.0000;583.5979
2811.0000;565.9245
2812.0000;547.5632
2813.0000;547.9467
2814.0000;555.9662
2815.0000;536.5710
2816.0000;543.3515
2817.0000;554.0443
2818.0000;542.6789
2819.0000;547.4396
2820.0000;547.3346
2821.0000;538.2415
2822.0000;523.8527
2823.0000;512.6855
2824.0000;530.3300
2825.0000;533.8371
2826.0000;521.4389
2827.0000;540.1038
2828.0000;553.6664
2829.0000;541.7556
2830.0000;510.8288
2831.0000;491.8988
2832.0000;509.8624
2833.0000;538.2044
2834.0000;524.8330
2835.0000;473.2330
2836.0000;497.5968
2837.0000;491.0063
2838.0000;489.4102
2839.0000;504.3181
2840.0000;467.3100
2841.0000;500.5095
2842.0000;507.7057
2843.0000;469.7226
2844.0000;468.2538
2845.0000;462.8317
2846.0000;465.9742
2847.0000;477.4369
2848.0000;478.7571
2849.0000;434.6472
2850.0000;439.7178
2851.0000;475.3905
2852.0000;485.1642
2853.0000;463.0465
2854.0000;450.3929
2855.0000;443.2881
2856.0000;442.3730
2857.0000;452.8418
2858.0000;443.6791
2859.0000;449.0623
2860.0000;449.0217
2861.0000;427.0939
2862.0000;454.9955
2863.0000;462.3775
2864.0000;458.1694
2865.0000;452.2668
2866.0000;425.1061
2867.0000;448.4275
2868.0000;467.6663
2869.0000;459.9906
2870.0000;453.6259
2871.0000;454.9398
2872.0000;445.8676
2873.0000;442.1365
2874.0000;452.9394
2875.0000;448.7254
2876.0000;465.3956
2877.0000;467.7240
2878.0000;456.5888
2879.0000;468.5848
2880.0000;453.7820
2881.0000;443.8806
2882.0000;447.5652
2883.0000;452.6981
2884.0000;446.0861
2885.0000;437.1329
2886.0000;449.2811
2887.0000;464.6279
2888.0000;440.7685
2889.0000;442.6537
2890.0000;455.5511
2891.0000;465.5503
2892.0000;461.7704
2893.0000;440.7451
2894.0000;442.8527
2895.0000;463.0694
2896.0000;467.5653
2897.0000;435.9077
2898.0000;433.4513
2899.0000;457.2219
2900.0000;466.3734
2901.0000;439.2084
2902.0000;425.7365
2903.0000;434.4258
2904.0000;447.9211
2905.0000;449.3272
2906.0000;439.2888
2907.0000;425.1246
2908.0000;430.0815
2909.0000;434.0689
2910.0000;418.3766
2911.0000;404.0690
2912.0000;408.8836
2913.0000;423.7019
2914.0000;427.4996
2915.0000;414.1464
2916.0000;415.2099
2917.0000;407.4810
2918.0000;410.9690
2919.0000;421.8926
2920.0000;407.3989
2921.0000;395.8382
2922.0000;401.6750
2923.0000;410.3219
2924.0000;407.1732
2925.0000;408.0014
2926.0000;412.6934
2927.0000;419.2288
2928.0000;413.4917
2929.0000;387.8993
2930.0000;366.0575
2931.0000;385.4840
2932.0000;413.8160
2933.0000;409.6494
2934.0000;377.0000
2935.0000;383.6026
2936.0000;382.1201
2937.0000;375.9749
2938.0000;381.7353
2939.0000;391.0407
2940.0000;388.9066
2941.0000;387.5253
2942.0000;381.1761
2943.0000;365.4472
2944.0000;362.1702
2945.0000;370.1809
2946.0000;366.4777
2947.0000;359.0196
2948.0000;364.3325
2949.0000;338.6856
2950.0000;350.0693
2951.0000;358.8483
2952.0000;349.6284
2953.0000;352.7379
2954.0000;330.4585
2955.0000;319.8218
2956.0000;334.1811
2957.0000;350.7372
2958.0000;335.8420
2959.0000;331.8670
2960.0000;336.2175
2961.0000;346.0683
2962.0000;348.8030
2963.0000;334.2054
2964.0000;346.7514
2965.0000;346.1700
2966.0000;340.3288
2967.0000;337.7766
2968.0000;308.5998
2969.0000;317.3542
2970.0000;332.1989
2971.0000;339.7696
2972.0000;340.2237
2973.0000;325.3386
2974.0000;322.6995
2975.0000;326.6164
2976.0000;331.6208
2977.0000;328.4383
2978.0000;304.8023
2979.0000;306.5602
2980.0000;321.0905
2981.0000;322.5016
2982.0000;312.5473
2983.0000;332.7579
2984.0000;332.5054
2985.0000;339.0723
2986.0000;346.9049
2987.0000;339.0578
2988.0000;338.3662
2989.0000;334.3321
2990.0000;347.2171
2991.0000;361.5549
2992.0000;347.3986
2993.0000;310.4261
2994.0000;308.4393
2995.0000;315.1225
2996.0000;324.0084
2997.0000;331.6090
2998.0000;313.9798
2999.0000;307.4569
3000.0000;318.4195
3001.0000;322.8085
3002.0000;310.6670
3003.0000;315.2259
3004.0000;332.4413
3005.0000;337.8799
3006.0000;327.6856
3007.0000;317.0256
3008.0000;317.0000
3009.0000;300.9032
3010.0000;295.9456
3011.0000;308.7157
3012.0000;321.9880
3013.0000;310.5342
3014.0000;273.3546
3015.0000;294.4705
3016.0000;316.0099
3017.0000;299.1978
3018.0000;285.2994
3019.0000;302.1594
3020.0000;297.4139
3021.0000;307.0168
3022.0000;312.4094
3023.0000;291.7651
3024.0000;312.6815
3025.0000;302.6276
3026.0000;298.4676
3027.0000;297.0417
3028.0000;284.4323
3029.0000;277.7230
3030.0000;275.3216
3031.0000;246.7121
3032.0000;246.0344
3033.0000;274.7294
3034.0000;261.1647
3035.0000;266.4853
3036.0000;259.7753
3037.0000;252.5201
3038.0000;256.1875
3039.0000;264.0352
3040.0000;259.3965
3041.0000;259.7543
3042.0000;257.5216
3043.0000;255.6138
3044.0000;252.4623
3045.0000;239.0000
3046.0000;254.7225
3047.0000;236.5860
3048.0000;226.1087
3049.0000;234.7551
3050.0000;225.1477
3051.0000;236.6297
3052.0000;232.2356
3053.0000;242.2422
3054.0000;250.4221
3055.0000;229.6232
3056.0000;209.3908
3057.0000;223.1082
3058.0000;233.5138
3059.0000;247.8689
3060.0000;250.4547
3061.0000;218.0022
3062.0000;219.5603
3063.0000;223.1886
3064.0000;225.0116
3065.0000;222.2444
3066.0000;212.6500
3067.0000;200.9896
3068.0000;215.6510
3069.0000;219.0231
3070.0000;206.6875
3071.0000;196.7601
3072.0000;199.1354
3073.0000;193.9525
3074.0000;203.6051
3075.0000;210.0076
3076.0000;212.2190
3077.0000;211.5253
3078.0000;201.8453
3079.0000;198.6190
3080.0000;194.1870
3081.0000;190.3603
3082.0000;200.9639
3083.0000;218.0892
3084.0000;203.0000
3085.0000;186.6609
3086.0000;184.8080
3087.0000;203.3446
3088.0000;206.8948
3089.0000;175.0366
3090.0000;172.8343
3091.0000;190.3556
3092.0000;174.4881
3093.0000;160.4732
3094.0000;177.0750
3095.0000;188.7124
3096.0000;185.7746
3097.0000;194.5260
3098.0000;197.0005
3099.0000;187.7964
3100.0000;184.9355
3101.0000;198.4021
3102.0000;185.2937
3103.0000;188.0075
3104.0000;189.8633
3105.0000;177.7171
3106.0000;167.9329
3107.0000;183.1800
3108.0000;189.0157
3109.0000;175.4679
3110.0000;169.3797
3111.0000;175.9229
3112.0000;178.1922
3113.0000;172.8824
3114.0000;176.4738
3115.0000;187.6636
3116.0000;188.1781
3117.0000;188.4529
3118.0000;204.1796
3119.0000;217.3880
3120.0000;209.0043
3121.0000;185.3238
3122.0000;197.8434
3123.0000;211.9997
3124.0000;194.6485
3125.0000;199.6001
3126.0000;196.0958
3127.0000;205.7439
3128.0000;230.0455
3129.0000;228.9759
3130.0000;207.6692
3131.0000;223.7596
3132.0000;210.8195
3133.0000;213.3698
3134.0000;212.8162
3135.0000;213.0449
3136.0000;222.3831
3137.0000;223.8482
3138.0000;198.3478
3139.0000;219.0643
3140.0000;219.3131
3141.0000;216.6363
3142.0000;227.0399
3143.0000;227.1408
3144.0000;235.5898
3145.0000;228.8374
3146.0000;250.6006
3147.0000;237.8991
3148.0000;213.2112
3149.0000;229.4439
3150.0000;221.1767
3151.0000;222.8915
3152.0000;218.2180
3153.0000;214.0310
3154.0000;223.2698
3155.0000;232.6066
3156.0000;221.8191
3157.0000;233.9959
3158.0000;232.0909
3159.0000;234.6227
3160.0000;233.4048
3161.0000;227.5069
3162.0000;231.9778
3163.0000;239.9169
3164.0000;218.8827
3165.0000;232.7151
3166.0000;235.7639
3167.0000;232.9415
3168.0000;243.5507
3169.0000;233.6978
3170.0000;219.2695
3171.0000;243.3031
3172.0000;229.9895
3173.0000;204.1935
3174.0000;208.1007
3175.0000;224.3764
3176.0000;226.0246
3177.0000;257.2907
3178.0000;245.3329
3179.0000;232.4955
3180.0000;234.5301
3181.0000;234.9764
3182.0000;228.4792
3183.0000;226.5247
3184.0000;255.5938
3185.0000;261.7084
3186.0000;244.5875
3187.0000;229.5822
3188.0000;227.4577
3189.0000;227.4643
3190.0000;232.0188
3191.0000;239.5512
3192.0000;249.2515
3193.0000;244.5939
3194.0000;249.3555
3195.0000;273.0468
3196.0000;264.2836
3197.0000;253.7256
3198.0000;266.1002
3199.0000;270.6571
3200.0000;269.6378
3201.0000;260.7147
3202.0000;241.9775
3203.0000;240.1841
3204.0000;245.1584
3205.0000;259.1949
3206.0000;260.7517
3207.0000;271.2596
3208.0000;276.7680
3209.0000;265.7600
3210.0000;286.6149
3211.0000;279.5198
3212.0000;270.6017
3213.0000;277.6782
3214.0000;287.6675
3215.0000;285.0706
3216.0000;284.5818
3217.0000;302.2223
3218.0000;290.7872
3219.0000;294.6838
3220.0000;283.4919
3221.0000;280.6123
3222.0000;284.7886
3223.0000;292.8695
3224.0000;318.4013
3225.0000;305.4548
3226.0000;311.8774
3227.0000;309.2712
3228.0000;320.7031
3229.0000;323.3857
3230.0000;303.9796
3231.0000;305.9067
3232.0000;338.2477
3233.0000;329.7341
3234.0000;313.8776
3235.0000;314.6703
3236.0000;318.3317
3237.0000;308.9015
3238.0000;304.1294
3239.0000;320.5983
3240.0000;315.2756
3241.0000;335.0111
3242.0000;327.8245
3243.0000;322.0671
3244.0000;317.7940
3245.0000;314.8947
3246.0000;330.0308
3247.0000;321.7547
3248.0000;306.6048
3249.0000;330.2029
3250.0000;328.9899
3251.0000;328.5632
3252.0000;332.6034
3253.0000;320.7361
3254.0000;315.3674
3255.0000;301.3952
3256.0000;280.1014
3257.0000;287.8450
3258.0000;297.9749
3259.0000;294.2580
3260.0000;286.3304
3261.0000;283.1653
3262.0000;276.0892
3263.0000;260.4640
3264.0000;254.9534
3265.0000;265.9618
3266.0000;261.8321
3267.0000;247.0038
3268.0000;252.9209
3269.0000;261.1624
3270.0000;225.3821
3271.0000;224.5038
3272.0000;246.9637
3273.0000;229.3724
3274.0000;214.2552
3275.0000;208.7180
3276.0000;198.4449
3277.0000;197.0226
3278.0000;208.8392
3279.0000;191.9282
3280.0000;198.7572
3281.0000;181.7012
3282.0000;186.1727
3283.0000;197.6850
3284.0000;188.9413
3285.0000;180.5453
3286.0000;185.3842
3287.0000;160.5713
3288.0000;164.2912
3289.0000;146.7047
3290.0000;148.2549
3291.0000;148.6564
3292.0000;147.8970
3293.0000;146.4380
3294.0000;138.4661
3295.0000;157.4643
3296.0000;155.3184
3297.0000;169.8088
3298.0000;152.4716
3299.0000;150.2432
3300.0000;155.7417
3301.0000;150.5122
3302.0000;141.6416
3303.0000;136.6119
3304.0000;149.7453
3305.0000;144.2112
3306.0000;107.4339
3307.0000;122.1236
3308.0000;133.4558
3309.0000;129.1827
3310.0000;132.9465
3311.0000;136.0961
3312.0000;135.2350
3313.0000;144.6673
3314.0000;136.3553
3315.0000;153.7477
3316.0000;157.8638
3317.0000;149.8476
3318.0000;137.6597
3319.0000;137.1473
3320.0000;144.1328
3321.0000;130.7493
3322.0000;137.5109
3323.0000;143.5411
3324.0000;141.3204
3325.0000;147.4112
3326.0000;128.9071
3327.0000;117.8095
3328.0000;126.8134
3329.0000;118.8096
3330.0000;106.6759
3331.0000;129.3157
3332.0000;158.7072
3333.0000;152.3785
3334.0000;130.2009
3335.0000;116.6002
3336.0000;122.0189
3337.0000;127.7330
3338.0000;131.2042
3339.0000;140.9419
3340.0000;130.7376
3341.0000;119.6312
3342.0000;118.7693
3343.0000;110.9768
3344.0000;103.9338
3345.0000;99.3736
3346.0000;118.9976
3347.0000;128.3390
3348.0000;108.6106
3349.0000;113.2789
3350.0000;121.3310
3351.0000;112.9099
3352.0000;116.9966
3353.0000;122.9278
3354.0000;133.0786
3355.0000;131.5249
3356.0000;122.0481
3357.0000;121.2755
3358.0000;117.3488
3359.0000;100.2596
3360.0000;104.6687
3361.0000;106.0809
3362.0000;121.3457
3363.0000;97.3609
3364.0000;91.7506
3365.0000;105.7814
3366.0000;99.9230
3367.0000;92.0476
3368.0000;95.6789
3369.0000;90.8171
3370.0000;98.4549
3371.0000;85.3900
3372.0000;81.9987
3373.0000;82.5662
3374.0000;74.4178
3375.0000;75.3502
3376.0000;83.1149
3377.0000;78.1775
3378.0000;76.2621
3379.0000;80.0359
3380.0000;73.6726
3381.0000;97.7655
3382.0000;91.7081
3383.0000;72.9633
3384.0000;79.6300
3385.0000;93.7211
3386.0000;75.1091
