Raman Shift ; Dark Subtracted #1
-2.0000;10430.2600
-1.0000;10118.3700
0.0000;9526.1920
1.0000;8566.3660
2.0000;7231.3940
3.0000;5617.5170
4.0000;4049.8900
5.0000;2661.9430
6.0000;1619.3040
7.0000;1077.0070
8.0000;691.6694
9.0000;520.0701
10.0000;612.2368
11.0000;610.3448
12.0000;384.9266
13.0000;163.0418
14.0000;2.8124
15.0000;-49.8932
16.0000;-16.3706
17.0000;18.3936
18.0000;15.6668
19.0000;17.0688
20.0000;19.3235
21.0000;20.4809
22.0000;22.2977
23.0000;24.5992
24.0000;28.0472
25.0000;30.3752
26.0000;29.8417
27.0000;23.8461
28.0000;15.7704
29.0000;10.2710
30.0000;10.2675
31.0000;15.2090
32.0000;22.7140
33.0000;32.3311
34.0000;41.6407
35.0000;47.1114
36.0000;46.0244
37.0000;39.5192
38.0000;32.3684
39.0000;30.4231
40.0000;30.7923
41.0000;30.8619
42.0000;27.2258
43.0000;22.4495
44.0000;18.4605
45.0000;17.2260
46.0000;18.1268
47.0000;18.5154
48.0000;14.4104
49.0000;8.6150
50.0000;4.4848
51.0000;4.6765
52.0000;9.0532
53.0000;14.8255
54.0000;19.1754
55.0000;22.3531
56.0000;24.8995
57.0000;28.4019
58.0000;31.1445
59.0000;32.2382
60.0000;29.9268
61.0000;25.2995
62.0000;23.3935
63.0000;30.9111
64.0000;45.3949
65.0000;59.2771
66.0000;63.4295
67.0000;59.0731
68.0000;56.8659
69.0000;68.5493
70.0000;91.7280
71.0000;118.1421
72.0000;141.5426
73.0000;158.6039
74.0000;173.0658
75.0000;192.9975
76.0000;212.4997
77.0000;231.2122
78.0000;253.6197
79.0000;275.0781
80.0000;295.0585
81.0000;317.9828
82.0000;339.3448
83.0000;360.6960
84.0000;388.3052
85.0000;417.6487
86.0000;445.2122
87.0000;473.1806
88.0000;496.1771
89.0000;519.1178
90.0000;553.4756
91.0000;594.5701
92.0000;634.3614
93.0000;673.0940
94.0000;703.3101
95.0000;729.6432
96.0000;764.7650
97.0000;803.9285
98.0000;842.8562
99.0000;889.6279
100.0000;938.9052
101.0000;980.0484
102.0000;1019.4520
103.0000;1048.8530
104.0000;1070.9200
105.0000;1099.4860
106.0000;1130.8960
107.0000;1162.9190
108.0000;1206.4630
109.0000;1254.2350
110.0000;1300.1460
111.0000;1348.9010
112.0000;1394.0610
113.0000;1428.5040
114.0000;1463.1290
115.0000;1491.4380
116.0000;1514.8630
117.0000;1547.7080
118.0000;1587.5100
119.0000;1626.8940
120.0000;1667.6680
121.0000;1704.7110
122.0000;1734.8750
123.0000;1764.5470
124.0000;1789.2600
125.0000;1808.9240
126.0000;1834.2220
127.0000;1862.8020
128.0000;1890.1860
129.0000;1920.5900
130.0000;1950.6080
131.0000;1974.4190
132.0000;1993.1450
133.0000;2002.7410
134.0000;2007.4000
135.0000;2019.7780
136.0000;2039.7300
137.0000;2062.0800
138.0000;2085.8720
139.0000;2109.0460
140.0000;2128.3010
141.0000;2148.7150
142.0000;2167.3740
143.0000;2180.4430
144.0000;2193.8200
145.0000;2203.9380
146.0000;2210.1020
147.0000;2217.2590
148.0000;2223.6110
149.0000;2229.0770
150.0000;2237.5690
151.0000;2248.5420
152.0000;2256.9880
153.0000;2261.5430
154.0000;2260.1410
155.0000;2256.1850
156.0000;2255.4470
157.0000;2258.3480
158.0000;2261.9480
159.0000;2263.2810
160.0000;2262.0660
161.0000;2262.0850
162.0000;2268.1020
163.0000;2279.6240
164.0000;2291.2200
165.0000;2296.2060
166.0000;2293.2900
167.0000;2290.0350
168.0000;2296.1790
169.0000;2310.8370
170.0000;2326.4310
171.0000;2334.9040
172.0000;2334.8510
173.0000;2333.1360
174.0000;2338.7330
175.0000;2350.5120
176.0000;2363.1470
177.0000;2374.6800
178.0000;2382.5790
179.0000;2389.1730
180.0000;2399.4870
181.0000;2410.4990
182.0000;2417.0120
183.0000;2417.0080
184.0000;2408.9420
185.0000;2399.6410
186.0000;2394.7930
187.0000;2395.4730
188.0000;2401.3880
189.0000;2414.0090
190.0000;2430.7020
191.0000;2444.6490
192.0000;2447.4860
193.0000;2439.5660
194.0000;2430.1580
195.0000;2430.6040
196.0000;2437.9810
197.0000;2446.5540
198.0000;2450.9060
199.0000;2452.1670
200.0000;2452.9610
201.0000;2457.7540
202.0000;2463.3070
203.0000;2466.0110
204.0000;2462.0880
205.0000;2453.5050
206.0000;2446.8720
207.0000;2448.6830
208.0000;2456.4970
209.0000;2464.6330
210.0000;2467.8160
211.0000;2467.6290
212.0000;2466.4270
213.0000;2464.9760
214.0000;2464.4060
215.0000;2467.8000
216.0000;2477.7050
217.0000;2492.3330
218.0000;2508.1740
219.0000;2526.7110
220.0000;2541.8570
221.0000;2551.6850
222.0000;2555.0050
223.0000;2551.2800
224.0000;2548.3030
225.0000;2552.9940
226.0000;2559.1390
227.0000;2563.9810
228.0000;2563.9160
229.0000;2562.6030
230.0000;2565.3440
231.0000;2576.0990
232.0000;2588.8440
233.0000;2597.3360
234.0000;2597.1380
235.0000;2592.2200
236.0000;2589.4190
237.0000;2591.6520
238.0000;2596.4560
239.0000;2602.7030
240.0000;2609.6570
241.0000;2617.0140
242.0000;2624.7860
243.0000;2632.7140
244.0000;2639.3420
245.0000;2646.1800
246.0000;2652.5300
247.0000;2656.4380
248.0000;2658.5680
249.0000;2657.9580
250.0000;2656.4870
251.0000;2657.9590
252.0000;2662.8360
253.0000;2668.1300
254.0000;2672.0010
255.0000;2673.4570
256.0000;2672.9360
257.0000;2671.2500
258.0000;2668.2600
259.0000;2665.8680
260.0000;2665.5880
261.0000;2667.9830
262.0000;2673.1820
263.0000;2680.3600
264.0000;2689.4640
265.0000;2700.5290
266.0000;2715.9420
267.0000;2731.6840
268.0000;2743.5600
269.0000;2749.5070
270.0000;2747.6350
271.0000;2744.5130
272.0000;2748.7190
273.0000;2755.6560
274.0000;2762.0960
275.0000;2766.2740
276.0000;2767.5520
277.0000;2767.4000
278.0000;2766.8520
279.0000;2765.8450
280.0000;2766.8290
281.0000;2772.9270
282.0000;2780.5910
283.0000;2785.8960
284.0000;2784.6920
285.0000;2780.9850
286.0000;2780.7450
287.0000;2787.4360
288.0000;2798.6810
289.0000;2813.0310
290.0000;2831.1120
291.0000;2845.9570
292.0000;2854.7260
293.0000;2854.3100
294.0000;2846.4960
295.0000;2838.0120
296.0000;2830.6540
297.0000;2825.3140
298.0000;2823.5320
299.0000;2826.6530
300.0000;2835.0580
301.0000;2848.5010
302.0000;2865.3450
303.0000;2881.1320
304.0000;2892.5430
305.0000;2896.3980
306.0000;2895.7710
307.0000;2896.7280
308.0000;2897.7110
309.0000;2898.8530
310.0000;2902.7450
311.0000;2908.0260
312.0000;2912.3910
313.0000;2914.4190
314.0000;2913.5000
315.0000;2911.5930
316.0000;2909.0750
317.0000;2907.5040
318.0000;2910.2350
319.0000;2922.9850
320.0000;2939.6250
321.0000;2952.2450
322.0000;2953.4640
323.0000;2947.0280
324.0000;2942.3030
325.0000;2946.7030
326.0000;2955.5170
327.0000;2966.1560
328.0000;2977.3360
329.0000;2987.4730
330.0000;2997.2120
331.0000;3006.1370
332.0000;3012.2900
333.0000;3017.2460
334.0000;3020.6120
335.0000;3022.9640
336.0000;3028.4740
337.0000;3037.1820
338.0000;3046.7940
339.0000;3057.9000
340.0000;3069.1610
341.0000;3076.1420
342.0000;3077.7190
343.0000;3071.8960
344.0000;3064.4510
345.0000;3063.2500
346.0000;3067.5250
347.0000;3071.4390
348.0000;3070.2100
349.0000;3064.4480
350.0000;3057.3950
351.0000;3047.8420
352.0000;3040.1900
353.0000;3041.1610
354.0000;3057.0320
355.0000;3083.6080
356.0000;3106.9620
357.0000;3118.2220
358.0000;3119.3650
359.0000;3120.1140
360.0000;3128.6650
361.0000;3136.8270
362.0000;3143.7860
363.0000;3147.7860
364.0000;3149.5310
365.0000;3153.2340
366.0000;3160.6900
367.0000;3166.3470
368.0000;3166.1110
369.0000;3158.0370
370.0000;3147.4230
371.0000;3141.1030
372.0000;3140.9380
373.0000;3146.0750
374.0000;3156.0190
375.0000;3169.6790
376.0000;3182.4340
377.0000;3188.5600
378.0000;3186.9230
379.0000;3183.1060
380.0000;3183.9020
381.0000;3187.0240
382.0000;3190.9330
383.0000;3194.4870
384.0000;3197.8030
385.0000;3202.2000
386.0000;3211.0270
387.0000;3219.0570
388.0000;3223.0900
389.0000;3218.7340
390.0000;3210.6030
391.0000;3207.4730
392.0000;3214.5280
393.0000;3226.8600
394.0000;3240.1460
395.0000;3250.8080
396.0000;3260.2510
397.0000;3270.8060
398.0000;3282.3880
399.0000;3290.1200
400.0000;3293.0920
401.0000;3289.5490
402.0000;3284.8630
403.0000;3286.8200
404.0000;3295.2080
405.0000;3304.8760
406.0000;3313.1480
407.0000;3318.4310
408.0000;3321.8250
409.0000;3325.0010
410.0000;3326.1070
411.0000;3326.9590
412.0000;3328.2160
413.0000;3330.7250
414.0000;3337.3020
415.0000;3350.4720
416.0000;3366.7900
417.0000;3382.5660
418.0000;3396.4620
419.0000;3404.1340
420.0000;3404.7040
421.0000;3396.4250
422.0000;3383.5120
423.0000;3376.2240
424.0000;3378.1080
425.0000;3383.3090
426.0000;3384.7330
427.0000;3381.9890
428.0000;3379.9390
429.0000;3382.0220
430.0000;3388.3190
431.0000;3396.1520
432.0000;3406.0290
433.0000;3414.6880
434.0000;3417.9000
435.0000;3409.7640
436.0000;3395.0930
437.0000;3387.4760
438.0000;3400.6280
439.0000;3423.4870
440.0000;3442.8500
441.0000;3447.0140
442.0000;3442.4480
443.0000;3439.5660
444.0000;3443.4100
445.0000;3447.9710
446.0000;3449.9870
447.0000;3447.7280
448.0000;3446.6860
449.0000;3453.4980
450.0000;3468.8630
451.0000;3484.4170
452.0000;3492.2140
453.0000;3490.9550
454.0000;3488.9160
455.0000;3496.3330
456.0000;3509.2000
457.0000;3521.3590
458.0000;3528.2320
459.0000;3530.2000
460.0000;3532.3700
461.0000;3539.0280
462.0000;3547.7230
463.0000;3559.7760
464.0000;3575.8980
465.0000;3593.0460
466.0000;3611.1380
467.0000;3628.4270
468.0000;3643.0230
469.0000;3658.5620
470.0000;3673.9970
471.0000;3687.0830
472.0000;3701.8380
473.0000;3715.3980
474.0000;3728.9740
475.0000;3749.8520
476.0000;3772.2210
477.0000;3790.9940
478.0000;3808.3520
479.0000;3816.4850
480.0000;3816.4000
481.0000;3812.9660
482.0000;3801.6360
483.0000;3788.3330
484.0000;3777.7970
485.0000;3767.9080
486.0000;3755.3000
487.0000;3738.3520
488.0000;3724.8250
489.0000;3718.2490
490.0000;3722.0940
491.0000;3729.4730
492.0000;3728.8340
493.0000;3719.8210
494.0000;3709.4330
495.0000;3701.8410
496.0000;3698.7780
497.0000;3700.2420
498.0000;3705.7750
499.0000;3715.2650
500.0000;3724.0000
501.0000;3728.6000
502.0000;3728.9450
503.0000;3727.5660
504.0000;3726.1570
505.0000;3723.8030
506.0000;3722.3170
507.0000;3723.0600
508.0000;3723.5460
509.0000;3720.2550
510.0000;3712.5100
511.0000;3706.0520
512.0000;3705.5080
513.0000;3712.1870
514.0000;3722.6110
515.0000;3733.5500
516.0000;3743.7160
517.0000;3751.7000
518.0000;3756.7260
519.0000;3757.3360
520.0000;3757.3010
521.0000;3758.9540
522.0000;3762.1080
523.0000;3769.9030
524.0000;3786.1960
525.0000;3802.0760
526.0000;3810.8470
527.0000;3807.8200
528.0000;3800.2840
529.0000;3800.1290
530.0000;3808.4460
531.0000;3817.1690
532.0000;3818.9070
533.0000;3814.3290
534.0000;3811.0860
535.0000;3817.7850
536.0000;3830.4540
537.0000;3842.6000
538.0000;3848.0950
539.0000;3849.6180
540.0000;3854.2000
541.0000;3867.3300
542.0000;3881.6750
543.0000;3891.5200
544.0000;3893.5740
545.0000;3892.4660
546.0000;3896.5930
547.0000;3906.2700
548.0000;3917.6800
549.0000;3931.4220
550.0000;3943.4530
551.0000;3950.1870
552.0000;3948.2610
553.0000;3938.3490
554.0000;3931.8000
555.0000;3938.6160
556.0000;3953.5320
557.0000;3968.5740
558.0000;3979.6940
559.0000;3987.3020
560.0000;3993.6600
561.0000;3998.9710
562.0000;4000.7160
563.0000;4000.6710
564.0000;3998.2370
565.0000;3994.6540
566.0000;3992.8550
567.0000;3992.9130
568.0000;3994.1590
569.0000;3997.1290
570.0000;4000.4490
571.0000;4000.6970
572.0000;3993.1480
573.0000;3983.5400
574.0000;3978.8080
575.0000;3984.0930
576.0000;3994.5700
577.0000;4004.0990
578.0000;4009.4380
579.0000;4012.4010
580.0000;4015.2500
581.0000;4016.9380
582.0000;4016.6980
583.0000;4014.7250
584.0000;4011.2620
585.0000;4009.5660
586.0000;4014.2690
587.0000;4021.4620
588.0000;4025.1010
589.0000;4019.2910
590.0000;4009.3090
591.0000;4003.0550
592.0000;4004.3760
593.0000;4009.5100
594.0000;4013.5780
595.0000;4015.3070
596.0000;4017.7140
597.0000;4023.6660
598.0000;4032.0950
599.0000;4038.8190
600.0000;4040.7910
601.0000;4038.5540
602.0000;4037.7110
603.0000;4044.6080
604.0000;4053.8310
605.0000;4061.6520
606.0000;4064.8080
607.0000;4065.0090
608.0000;4065.3910
609.0000;4066.2750
610.0000;4069.2590
611.0000;4076.9910
612.0000;4089.5230
613.0000;4103.7130
614.0000;4119.5250
615.0000;4133.5560
616.0000;4145.4780
617.0000;4156.6520
618.0000;4165.2490
619.0000;4178.6140
620.0000;4204.6460
621.0000;4229.0400
622.0000;4244.5440
623.0000;4243.1810
624.0000;4238.2150
625.0000;4249.5550
626.0000;4277.7250
627.0000;4308.9380
628.0000;4337.6440
629.0000;4358.0690
630.0000;4373.1900
631.0000;4394.7970
632.0000;4408.8070
633.0000;4415.2270
634.0000;4415.6210
635.0000;4405.6490
636.0000;4390.6550
637.0000;4373.0980
638.0000;4354.7720
639.0000;4340.2190
640.0000;4332.7940
641.0000;4327.2160
642.0000;4313.5030
643.0000;4296.8870
644.0000;4281.5810
645.0000;4267.2340
646.0000;4258.2300
647.0000;4252.4630
648.0000;4248.4130
649.0000;4248.0540
650.0000;4245.6050
651.0000;4239.0820
652.0000;4235.6190
653.0000;4240.5620
654.0000;4254.3550
655.0000;4268.0870
656.0000;4275.1670
657.0000;4274.1980
658.0000;4269.4000
659.0000;4263.5330
660.0000;4257.7220
661.0000;4257.5720
662.0000;4268.5450
663.0000;4281.4190
664.0000;4284.0400
665.0000;4271.4880
666.0000;4256.5810
667.0000;4254.2090
668.0000;4263.9850
669.0000;4274.1310
670.0000;4271.5400
671.0000;4260.6050
672.0000;4250.5690
673.0000;4246.5180
674.0000;4249.2430
675.0000;4258.4390
676.0000;4274.8330
677.0000;4292.8140
678.0000;4305.6840
679.0000;4309.6520
680.0000;4308.7630
681.0000;4310.5460
682.0000;4312.4680
683.0000;4313.0160
684.0000;4311.9640
685.0000;4309.7650
686.0000;4309.0060
687.0000;4312.3860
688.0000;4316.4160
689.0000;4317.1210
690.0000;4312.5730
691.0000;4306.4550
692.0000;4300.8960
693.0000;4297.7760
694.0000;4301.5460
695.0000;4319.3460
696.0000;4344.9730
697.0000;4362.4380
698.0000;4357.4980
699.0000;4338.7130
700.0000;4325.3090
701.0000;4328.3170
702.0000;4338.1250
703.0000;4345.7060
704.0000;4348.6090
705.0000;4350.5390
706.0000;4354.4470
707.0000;4358.8890
708.0000;4362.9880
709.0000;4366.8140
710.0000;4369.5650
711.0000;4372.5390
712.0000;4375.4330
713.0000;4380.0190
714.0000;4392.2440
715.0000;4412.8290
716.0000;4428.2350
717.0000;4426.0590
718.0000;4404.9650
719.0000;4382.0880
720.0000;4371.1590
721.0000;4373.7740
722.0000;4388.5140
723.0000;4415.6460
724.0000;4446.8720
725.0000;4468.3960
726.0000;4471.6620
727.0000;4462.7880
728.0000;4455.3660
729.0000;4449.4210
730.0000;4446.7620
731.0000;4452.5680
732.0000;4464.6350
733.0000;4474.9550
734.0000;4476.2140
735.0000;4471.6740
736.0000;4467.7290
737.0000;4467.8940
738.0000;4467.7460
739.0000;4463.7190
740.0000;4455.8350
741.0000;4448.7490
742.0000;4443.8770
743.0000;4444.6340
744.0000;4454.0000
745.0000;4478.8010
746.0000;4507.1300
747.0000;4524.6740
748.0000;4520.4610
749.0000;4506.2090
750.0000;4501.6550
751.0000;4509.8410
752.0000;4519.7800
753.0000;4521.8360
754.0000;4517.4430
755.0000;4512.4000
756.0000;4512.3450
757.0000;4514.6390
758.0000;4517.2090
759.0000;4518.5310
760.0000;4519.9450
761.0000;4522.6530
762.0000;4526.3800
763.0000;4529.9510
764.0000;4532.8450
765.0000;4534.3210
766.0000;4535.6000
767.0000;4539.8510
768.0000;4542.9890
769.0000;4541.6740
770.0000;4533.0010
771.0000;4522.9480
772.0000;4519.6580
773.0000;4525.1880
774.0000;4533.8300
775.0000;4536.9210
776.0000;4536.8330
777.0000;4539.8000
778.0000;4553.0900
779.0000;4569.2080
780.0000;4582.2750
781.0000;4588.0230
782.0000;4588.5890
783.0000;4592.3310
784.0000;4598.5840
785.0000;4601.2830
786.0000;4595.8550
787.0000;4583.8160
788.0000;4574.4410
789.0000;4574.1010
790.0000;4580.5360
791.0000;4588.2120
792.0000;4593.9120
793.0000;4599.6610
794.0000;4605.2030
795.0000;4610.1010
796.0000;4617.2290
797.0000;4633.2360
798.0000;4652.4880
799.0000;4667.5070
800.0000;4673.8130
801.0000;4673.5050
802.0000;4678.3770
803.0000;4692.1690
804.0000;4705.2080
805.0000;4711.6000
806.0000;4708.7760
807.0000;4700.7450
808.0000;4692.0700
809.0000;4683.1010
810.0000;4678.5210
811.0000;4682.2220
812.0000;4690.0020
813.0000;4692.2790
814.0000;4685.8960
815.0000;4681.8470
816.0000;4691.5900
817.0000;4713.0810
818.0000;4732.8120
819.0000;4740.1460
820.0000;4737.6670
821.0000;4735.0860
822.0000;4736.9170
823.0000;4741.1670
824.0000;4750.6370
825.0000;4764.3410
826.0000;4776.7170
827.0000;4783.3750
828.0000;4782.3640
829.0000;4778.1470
830.0000;4776.4670
831.0000;4772.9710
832.0000;4766.0070
833.0000;4753.8980
834.0000;4745.4260
835.0000;4748.3830
836.0000;4763.3580
837.0000;4781.0220
838.0000;4792.5970
839.0000;4796.8470
840.0000;4795.8770
841.0000;4790.4110
842.0000;4781.3670
843.0000;4774.7940
844.0000;4772.9440
845.0000;4774.1630
846.0000;4775.7430
847.0000;4778.8980
848.0000;4783.7850
849.0000;4791.2480
850.0000;4798.4200
851.0000;4801.6130
852.0000;4797.8120
853.0000;4793.2320
854.0000;4797.5120
855.0000;4809.9050
856.0000;4821.4290
857.0000;4824.0900
858.0000;4818.4930
859.0000;4810.6010
860.0000;4803.0890
861.0000;4798.3520
862.0000;4800.2960
863.0000;4810.3620
864.0000;4823.7430
865.0000;4834.6810
866.0000;4841.2710
867.0000;4844.0700
868.0000;4842.9030
869.0000;4839.5280
870.0000;4842.5150
871.0000;4856.1160
872.0000;4870.4750
873.0000;4876.0050
874.0000;4871.3200
875.0000;4866.3070
876.0000;4871.5040
877.0000;4881.9420
878.0000;4891.8870
879.0000;4897.9210
880.0000;4900.5440
881.0000;4902.2850
882.0000;4902.6380
883.0000;4902.7430
884.0000;4905.1910
885.0000;4909.4090
886.0000;4915.1810
887.0000;4922.7270
888.0000;4930.4490
889.0000;4938.4130
890.0000;4945.6440
891.0000;4950.4740
892.0000;4952.9380
893.0000;4952.4290
894.0000;4953.2000
895.0000;4959.4580
896.0000;4968.8900
897.0000;4980.4290
898.0000;4992.9790
899.0000;5004.4380
900.0000;5015.9120
901.0000;5024.4830
902.0000;5029.5950
903.0000;5033.2290
904.0000;5033.7940
905.0000;5036.6240
906.0000;5045.1970
907.0000;5054.7390
908.0000;5062.3010
909.0000;5066.0780
910.0000;5069.4520
911.0000;5078.2240
912.0000;5088.9220
913.0000;5097.7920
914.0000;5103.1860
915.0000;5105.3310
916.0000;5108.3750
917.0000;5112.4960
918.0000;5119.1410
919.0000;5133.3230
920.0000;5150.6190
921.0000;5163.1670
922.0000;5166.0380
923.0000;5160.1800
924.0000;5155.3990
925.0000;5154.4620
926.0000;5155.3200
927.0000;5157.4980
928.0000;5161.5470
929.0000;5167.2000
930.0000;5175.0740
931.0000;5182.9490
932.0000;5189.8920
933.0000;5194.2600
934.0000;5196.0210
935.0000;5199.5730
936.0000;5202.3730
937.0000;5199.3970
938.0000;5183.0170
939.0000;5162.5940
940.0000;5155.5050
941.0000;5171.7460
942.0000;5196.3220
943.0000;5206.2700
944.0000;5200.0720
945.0000;5192.9380
946.0000;5198.7830
947.0000;5212.7980
948.0000;5232.5160
949.0000;5256.8330
950.0000;5275.4880
951.0000;5279.3410
952.0000;5264.3800
953.0000;5247.2410
954.0000;5244.5050
955.0000;5254.2210
956.0000;5272.8710
957.0000;5300.5380
958.0000;5323.3870
959.0000;5324.9200
960.0000;5299.8080
961.0000;5270.1670
962.0000;5261.1650
963.0000;5268.0880
964.0000;5279.3490
965.0000;5287.0300
966.0000;5294.7090
967.0000;5301.3260
968.0000;5305.5650
969.0000;5307.2580
970.0000;5307.1730
971.0000;5305.9430
972.0000;5308.7500
973.0000;5318.5630
974.0000;5332.2880
975.0000;5348.6810
976.0000;5364.2340
977.0000;5375.4570
978.0000;5379.8320
979.0000;5376.6980
980.0000;5375.9760
981.0000;5383.4790
982.0000;5396.1010
983.0000;5413.8310
984.0000;5435.2050
985.0000;5450.8200
986.0000;5456.5440
987.0000;5450.5090
988.0000;5443.8030
989.0000;5444.7360
990.0000;5446.7880
991.0000;5444.8290
992.0000;5439.1230
993.0000;5438.1380
994.0000;5451.7830
995.0000;5473.7070
996.0000;5488.6630
997.0000;5486.7230
998.0000;5476.0300
999.0000;5469.5340
1000.0000;5468.9850
1001.0000;5473.7670
1002.0000;5486.5830
1003.0000;5502.5680
1004.0000;5509.9740
1005.0000;5500.5730
1006.0000;5485.9410
1007.0000;5484.1780
1008.0000;5496.2580
1009.0000;5508.9700
1010.0000;5507.8730
1011.0000;5500.3470
1012.0000;5498.6220
1013.0000;5510.5150
1014.0000;5523.9850
1015.0000;5527.5120
1016.0000;5519.9290
1017.0000;5514.5900
1018.0000;5525.8320
1019.0000;5543.6660
1020.0000;5554.3150
1021.0000;5549.9340
1022.0000;5541.8570
1023.0000;5544.4350
1024.0000;5556.0160
1025.0000;5565.4820
1026.0000;5562.4370
1027.0000;5554.9680
1028.0000;5556.2930
1029.0000;5571.7230
1030.0000;5589.1350
1031.0000;5598.1710
1032.0000;5597.8430
1033.0000;5594.0460
1034.0000;5590.8950
1035.0000;5588.8690
1036.0000;5593.5010
1037.0000;5606.7250
1038.0000;5619.3100
1039.0000;5622.8930
1040.0000;5617.5010
1041.0000;5610.7190
1042.0000;5607.4210
1043.0000;5606.1690
1044.0000;5607.2410
1045.0000;5611.0980
1046.0000;5615.0500
1047.0000;5614.2950
1048.0000;5612.0480
1049.0000;5615.2920
1050.0000;5629.0920
1051.0000;5643.2120
1052.0000;5647.3800
1053.0000;5639.7660
1054.0000;5630.3360
1055.0000;5627.6590
1056.0000;5631.0000
1057.0000;5639.2740
1058.0000;5651.4820
1059.0000;5669.2570
1060.0000;5697.0810
1061.0000;5727.7130
1062.0000;5747.6040
1063.0000;5747.6050
1064.0000;5732.5470
1065.0000;5723.9510
1066.0000;5728.0160
1067.0000;5738.2260
1068.0000;5752.3350
1069.0000;5767.6240
1070.0000;5778.5190
1071.0000;5781.2170
1072.0000;5776.9070
1073.0000;5772.2660
1074.0000;5768.3490
1075.0000;5768.5480
1076.0000;5777.2310
1077.0000;5791.9950
1078.0000;5806.5510
1079.0000;5816.5680
1080.0000;5824.0760
1081.0000;5834.7010
1082.0000;5846.0760
1083.0000;5856.1960
1084.0000;5869.6390
1085.0000;5877.8640
1086.0000;5878.0460
1087.0000;5867.5340
1088.0000;5854.8370
1089.0000;5849.5000
1090.0000;5853.1090
1091.0000;5864.7740
1092.0000;5884.6540
1093.0000;5905.2530
1094.0000;5915.9580
1095.0000;5912.6220
1096.0000;5907.9650
1097.0000;5919.5720
1098.0000;5936.4490
1099.0000;5947.5780
1100.0000;5946.7130
1101.0000;5939.0900
1102.0000;5933.7710
1103.0000;5930.2320
1104.0000;5926.6320
1105.0000;5919.3890
1106.0000;5915.1190
1107.0000;5920.3470
1108.0000;5937.0300
1109.0000;5951.6660
1110.0000;5950.6200
1111.0000;5935.8910
1112.0000;5921.3390
1113.0000;5913.6050
1114.0000;5912.4770
1115.0000;5919.5540
1116.0000;5933.8140
1117.0000;5942.7590
1118.0000;5930.8860
1119.0000;5910.0730
1120.0000;5903.2380
1121.0000;5919.5560
1122.0000;5940.1580
1123.0000;5943.4140
1124.0000;5932.3530
1125.0000;5919.7530
1126.0000;5913.5730
1127.0000;5913.5100
1128.0000;5921.6070
1129.0000;5937.5970
1130.0000;5952.5590
1131.0000;5960.0680
1132.0000;5957.8700
1133.0000;5950.0320
1134.0000;5936.9180
1135.0000;5924.5360
1136.0000;5920.5210
1137.0000;5925.4120
1138.0000;5930.1160
1139.0000;5926.2830
1140.0000;5921.4270
1141.0000;5922.5050
1142.0000;5930.4490
1143.0000;5936.6570
1144.0000;5932.5480
1145.0000;5922.1160
1146.0000;5913.0710
1147.0000;5909.9670
1148.0000;5910.5220
1149.0000;5911.6610
1150.0000;5914.2030
1151.0000;5916.4040
1152.0000;5915.1010
1153.0000;5914.9460
1154.0000;5922.2970
1155.0000;5936.9880
1156.0000;5950.1360
1157.0000;5955.1570
1158.0000;5950.9740
1159.0000;5942.9430
1160.0000;5932.5950
1161.0000;5922.4960
1162.0000;5915.7460
1163.0000;5914.2360
1164.0000;5914.0190
1165.0000;5911.5290
1166.0000;5910.0210
1167.0000;5909.9250
1168.0000;5911.5090
1169.0000;5913.1540
1170.0000;5911.3950
1171.0000;5909.5290
1172.0000;5912.3970
1173.0000;5921.6570
1174.0000;5932.9080
1175.0000;5940.7350
1176.0000;5945.0930
1177.0000;5950.8890
1178.0000;5961.9970
1179.0000;5971.9230
1180.0000;5976.6640
1181.0000;5974.5360
1182.0000;5971.6000
1183.0000;5974.6360
1184.0000;5980.3080
1185.0000;5987.4250
1186.0000;5994.7420
1187.0000;6001.8770
1188.0000;6011.5360
1189.0000;6019.4060
1190.0000;6022.4080
1191.0000;6017.0980
1192.0000;6012.6620
1193.0000;6022.8720
1194.0000;6046.3460
1195.0000;6068.9100
1196.0000;6080.8250
1197.0000;6083.9580
1198.0000;6089.3710
1199.0000;6096.4870
1200.0000;6097.6570
1201.0000;6088.1410
1202.0000;6072.9900
1203.0000;6066.8330
1204.0000;6077.4130
1205.0000;6090.6300
1206.0000;6089.7520
1207.0000;6078.5080
1208.0000;6070.7360
1209.0000;6075.8130
1210.0000;6085.4160
1211.0000;6090.0810
1212.0000;6089.1350
1213.0000;6087.4180
1214.0000;6089.0110
1215.0000;6091.8310
1216.0000;6095.0040
1217.0000;6097.9430
1218.0000;6101.7910
1219.0000;6108.9510
1220.0000;6116.1690
1221.0000;6120.4720
1222.0000;6119.9180
1223.0000;6116.0650
1224.0000;6111.1160
1225.0000;6106.9650
1226.0000;6108.7960
1227.0000;6121.3400
1228.0000;6137.1350
1229.0000;6146.1760
1230.0000;6146.0460
1231.0000;6144.7140
1232.0000;6150.9060
1233.0000;6158.2100
1234.0000;6164.3670
1235.0000;6167.5490
1236.0000;6165.5360
1237.0000;6155.2530
1238.0000;6141.9760
1239.0000;6138.1240
1240.0000;6150.6410
1241.0000;6164.7080
1242.0000;6162.9140
1243.0000;6148.7480
1244.0000;6136.2260
1245.0000;6133.1650
1246.0000;6137.0870
1247.0000;6144.5500
1248.0000;6155.3480
1249.0000;6165.8240
1250.0000;6173.5550
1251.0000;6176.7030
1252.0000;6176.5300
1253.0000;6172.6140
1254.0000;6171.2570
1255.0000;6181.1660
1256.0000;6195.6280
1257.0000;6206.1670
1258.0000;6208.5840
1259.0000;6208.1080
1260.0000;6213.7430
1261.0000;6219.6970
1262.0000;6220.9340
1263.0000;6215.3030
1264.0000;6203.1040
1265.0000;6184.7950
1266.0000;6165.4220
1267.0000;6154.6820
1268.0000;6158.7860
1269.0000;6173.6970
1270.0000;6188.6160
1271.0000;6201.0180
1272.0000;6206.2280
1273.0000;6198.2030
1274.0000;6186.6690
1275.0000;6189.2210
1276.0000;6210.1140
1277.0000;6236.7370
1278.0000;6263.1850
1279.0000;6283.4340
1280.0000;6295.9210
1281.0000;6295.7830
1282.0000;6292.4860
1283.0000;6303.8200
1284.0000;6319.8660
1285.0000;6328.5410
1286.0000;6324.3260
1287.0000;6315.5110
1288.0000;6314.6280
1289.0000;6318.3040
1290.0000;6318.2250
1291.0000;6308.3000
1292.0000;6300.9230
1293.0000;6310.2010
1294.0000;6333.3710
1295.0000;6353.7420
1296.0000;6357.9540
1297.0000;6353.3950
1298.0000;6353.5100
1299.0000;6357.2870
1300.0000;6358.6430
1301.0000;6351.6270
1302.0000;6344.9030
1303.0000;6350.4870
1304.0000;6369.4830
1305.0000;6386.7140
1306.0000;6388.1100
1307.0000;6380.3230
1308.0000;6378.5780
1309.0000;6386.9380
1310.0000;6397.0850
1311.0000;6404.7180
1312.0000;6408.7720
1313.0000;6410.6920
1314.0000;6409.7490
1315.0000;6411.0150
1316.0000;6423.7840
1317.0000;6441.3100
1318.0000;6452.9540
1319.0000;6451.2150
1320.0000;6445.4950
1321.0000;6450.9710
1322.0000;6462.3880
1323.0000;6468.2340
1324.0000;6461.9200
1325.0000;6452.1150
1326.0000;6449.0980
1327.0000;6453.0030
1328.0000;6459.0030
1329.0000;6464.5920
1330.0000;6468.1970
1331.0000;6465.8550
1332.0000;6458.1760
1333.0000;6454.5330
1334.0000;6462.0310
1335.0000;6475.0580
1336.0000;6486.9890
1337.0000;6495.1460
1338.0000;6496.3100
1339.0000;6487.5730
1340.0000;6474.6580
1341.0000;6469.5230
1342.0000;6475.6670
1343.0000;6484.6000
1344.0000;6488.6270
1345.0000;6491.1830
1346.0000;6496.4610
1347.0000;6504.2140
1348.0000;6509.8200
1349.0000;6511.4810
1350.0000;6508.9760
1351.0000;6507.3440
1352.0000;6507.6650
1353.0000;6507.1270
1354.0000;6502.8760
1355.0000;6497.9340
1356.0000;6496.9380
1357.0000;6501.7050
1358.0000;6508.6270
1359.0000;6514.0250
1360.0000;6516.9650
1361.0000;6517.0910
1362.0000;6513.5460
1363.0000;6510.6240
1364.0000;6513.0260
1365.0000;6520.3450
1366.0000;6530.7510
1367.0000;6543.2240
1368.0000;6552.1770
1369.0000;6555.4250
1370.0000;6550.4760
1371.0000;6542.0610
1372.0000;6532.3750
1373.0000;6524.5270
1374.0000;6521.2190
1375.0000;6524.1420
1376.0000;6528.9820
1377.0000;6533.2200
1378.0000;6538.3350
1379.0000;6545.7350
1380.0000;6553.0010
1381.0000;6557.5420
1382.0000;6556.8680
1383.0000;6556.2340
1384.0000;6564.4990
1385.0000;6578.6580
1386.0000;6590.1770
1387.0000;6594.0240
1388.0000;6592.4500
1389.0000;6588.8450
1390.0000;6585.6060
1391.0000;6593.4570
1392.0000;6620.4320
1393.0000;6648.8100
1394.0000;6663.1080
1395.0000;6659.8270
1396.0000;6654.8910
1397.0000;6657.9260
1398.0000;6663.8260
1399.0000;6674.2800
1400.0000;6686.6140
1401.0000;6695.7250
1402.0000;6698.7710
1403.0000;6695.4450
1404.0000;6688.8590
1405.0000;6680.3940
1406.0000;6677.1120
1407.0000;6684.1860
1408.0000;6695.9880
1409.0000;6703.8960
1410.0000;6707.7280
1411.0000;6713.2190
1412.0000;6724.3400
1413.0000;6733.5510
1414.0000;6735.2370
1415.0000;6730.0430
1416.0000;6729.8160
1417.0000;6742.1410
1418.0000;6759.3880
1419.0000;6778.8960
1420.0000;6793.6880
1421.0000;6792.2320
1422.0000;6766.2570
1423.0000;6736.4380
1424.0000;6730.9490
1425.0000;6748.8330
1426.0000;6766.5210
1427.0000;6768.9300
1428.0000;6769.8690
1429.0000;6784.7420
1430.0000;6805.9010
1431.0000;6818.8990
1432.0000;6814.7780
1433.0000;6803.6450
1434.0000;6801.8400
1435.0000;6806.7850
1436.0000;6811.4900
1437.0000;6812.2800
1438.0000;6812.2610
1439.0000;6816.2090
1440.0000;6820.2590
1441.0000;6816.1530
1442.0000;6799.2000
1443.0000;6783.6030
1444.0000;6784.6200
1445.0000;6799.3200
1446.0000;6809.4220
1447.0000;6807.0670
1448.0000;6800.5810
1449.0000;6798.3030
1450.0000;6797.8740
1451.0000;6795.5470
1452.0000;6790.2230
1453.0000;6785.2330
1454.0000;6781.3500
1455.0000;6781.4120
1456.0000;6787.1310
1457.0000;6798.8160
1458.0000;6812.3540
1459.0000;6827.4470
1460.0000;6835.8580
1461.0000;6830.8190
1462.0000;6808.5980
1463.0000;6793.1540
1464.0000;6811.1820
1465.0000;6844.2760
1466.0000;6855.2910
1467.0000;6835.3380
1468.0000;6813.6000
1469.0000;6817.2660
1470.0000;6835.3150
1471.0000;6856.6810
1472.0000;6875.3290
1473.0000;6883.7710
1474.0000;6874.9000
1475.0000;6854.1940
1476.0000;6840.5440
1477.0000;6837.1320
1478.0000;6837.4540
1479.0000;6835.5470
1480.0000;6836.7200
1481.0000;6841.8450
1482.0000;6850.2010
1483.0000;6855.5920
1484.0000;6853.4750
1485.0000;6848.4730
1486.0000;6846.4950
1487.0000;6848.9300
1488.0000;6857.4920
1489.0000;6873.3550
1490.0000;6889.9030
1491.0000;6901.1670
1492.0000;6903.3630
1493.0000;6898.3130
1494.0000;6885.7080
1495.0000;6874.5830
1496.0000;6878.6840
1497.0000;6892.5340
1498.0000;6897.9500
1499.0000;6885.8060
1500.0000;6872.0890
1501.0000;6869.7080
1502.0000;6876.8810
1503.0000;6886.2620
1504.0000;6895.1500
1505.0000;6906.3490
1506.0000;6924.1250
1507.0000;6940.9240
1508.0000;6955.1070
1509.0000;6962.1170
1510.0000;6962.2490
1511.0000;6959.7980
1512.0000;6952.8950
1513.0000;6947.2360
1514.0000;6944.2800
1515.0000;6944.9140
1516.0000;6948.8000
1517.0000;6956.8590
1518.0000;6968.4980
1519.0000;6980.6560
1520.0000;6988.9560
1521.0000;6989.5840
1522.0000;6985.1790
1523.0000;6981.8590
1524.0000;6980.8730
1525.0000;6987.3860
1526.0000;7004.3010
1527.0000;7022.5310
1528.0000;7033.5870
1529.0000;7038.0670
1530.0000;7049.6910
1531.0000;7070.9680
1532.0000;7086.6380
1533.0000;7083.7850
1534.0000;7069.5290
1535.0000;7068.1060
1536.0000;7083.7780
1537.0000;7099.2290
1538.0000;7100.7910
1539.0000;7093.3390
1540.0000;7085.8430
1541.0000;7080.0880
1542.0000;7078.9630
1543.0000;7087.2350
1544.0000;7095.8600
1545.0000;7089.3850
1546.0000;7071.6970
1547.0000;7063.9760
1548.0000;7078.7040
1549.0000;7101.2250
1550.0000;7114.2540
1551.0000;7119.1110
1552.0000;7127.1580
1553.0000;7141.7690
1554.0000;7149.3750
1555.0000;7142.9290
1556.0000;7124.5110
1557.0000;7104.4070
1558.0000;7088.2640
1559.0000;7087.4670
1560.0000;7114.9060
1561.0000;7151.4660
1562.0000;7164.8010
1563.0000;7147.4520
1564.0000;7118.6650
1565.0000;7089.7100
1566.0000;7068.8730
1567.0000;7066.3000
1568.0000;7084.9930
1569.0000;7107.4790
1570.0000;7124.4360
1571.0000;7130.8450
1572.0000;7119.4410
1573.0000;7095.2290
1574.0000;7080.9690
1575.0000;7086.5820
1576.0000;7099.2520
1577.0000;7106.4230
1578.0000;7110.2720
1579.0000;7110.2580
1580.0000;7105.8190
1581.0000;7102.8540
1582.0000;7106.8860
1583.0000;7113.7220
1584.0000;7119.4330
1585.0000;7122.1710
1586.0000;7120.6060
1587.0000;7113.2230
1588.0000;7105.2740
1589.0000;7105.3580
1590.0000;7110.9620
1591.0000;7112.3870
1592.0000;7105.7410
1593.0000;7100.3130
1594.0000;7105.6450
1595.0000;7115.3150
1596.0000;7119.5660
1597.0000;7115.2720
1598.0000;7104.2290
1599.0000;7084.0770
1600.0000;7067.7910
1601.0000;7068.1580
1602.0000;7086.8990
1603.0000;7107.7380
1604.0000;7118.1810
1605.0000;7126.1270
1606.0000;7142.1640
1607.0000;7158.4590
1608.0000;7166.3280
1609.0000;7161.6520
1610.0000;7160.2230
1611.0000;7186.1400
1612.0000;7216.8020
1613.0000;7225.1880
1614.0000;7204.2630
1615.0000;7183.6110
1616.0000;7184.1650
1617.0000;7196.2890
1618.0000;7210.4070
1619.0000;7224.1590
1620.0000;7231.0220
1621.0000;7225.2600
1622.0000;7217.0250
1623.0000;7222.6100
1624.0000;7233.8450
1625.0000;7237.2100
1626.0000;7228.4740
1627.0000;7218.8830
1628.0000;7218.5170
1629.0000;7222.1580
1630.0000;7221.8440
1631.0000;7218.2710
1632.0000;7217.3590
1633.0000;7222.3440
1634.0000;7229.5560
1635.0000;7235.2960
1636.0000;7238.5750
1637.0000;7241.1820
1638.0000;7242.8670
1639.0000;7244.3490
1640.0000;7248.1930
1641.0000;7252.1020
1642.0000;7254.3930
1643.0000;7254.6430
1644.0000;7256.5580
1645.0000;7265.3180
1646.0000;7270.3090
1647.0000;7260.1110
1648.0000;7239.6710
1649.0000;7226.0860
1650.0000;7228.9790
1651.0000;7241.8950
1652.0000;7260.3480
1653.0000;7277.3600
1654.0000;7280.8310
1655.0000;7266.9960
1656.0000;7253.8340
1657.0000;7257.2250
1658.0000;7267.3930
1659.0000;7275.1380
1660.0000;7279.0740
1661.0000;7280.4200
1662.0000;7279.5010
1663.0000;7271.7870
1664.0000;7251.1750
1665.0000;7228.5750
1666.0000;7220.9930
1667.0000;7233.5410
1668.0000;7247.8810
1669.0000;7249.3160
1670.0000;7243.0400
1671.0000;7232.3630
1672.0000;7219.4050
1673.0000;7210.0630
1674.0000;7207.2730
1675.0000;7214.5060
1676.0000;7234.4660
1677.0000;7257.9320
1678.0000;7264.4590
1679.0000;7248.6680
1680.0000;7233.0440
1681.0000;7236.7560
1682.0000;7242.4650
1683.0000;7228.3480
1684.0000;7203.3600
1685.0000;7189.7760
1686.0000;7199.9950
1687.0000;7217.7190
1688.0000;7223.9470
1689.0000;7224.7250
1690.0000;7227.7870
1691.0000;7232.5540
1692.0000;7235.2220
1693.0000;7234.9380
1694.0000;7230.7040
1695.0000;7222.5690
1696.0000;7213.4040
1697.0000;7208.5740
1698.0000;7211.5340
1699.0000;7216.6000
1700.0000;7218.3060
1701.0000;7216.4820
1702.0000;7209.8860
1703.0000;7199.0730
1704.0000;7187.6650
1705.0000;7178.1410
1706.0000;7173.1200
1707.0000;7172.0440
1708.0000;7176.6870
1709.0000;7182.9570
1710.0000;7188.9840
1711.0000;7189.9680
1712.0000;7180.7730
1713.0000;7168.2200
1714.0000;7162.3020
1715.0000;7164.7330
1716.0000;7170.2610
1717.0000;7176.4910
1718.0000;7183.3430
1719.0000;7191.4640
1720.0000;7195.8510
1721.0000;7192.5940
1722.0000;7181.1670
1723.0000;7171.6460
1724.0000;7171.6570
1725.0000;7176.4320
1726.0000;7176.4600
1727.0000;7176.6470
1728.0000;7187.3300
1729.0000;7210.1470
1730.0000;7228.1750
1731.0000;7228.4190
1732.0000;7217.5700
1733.0000;7213.2430
1734.0000;7215.0590
1735.0000;7217.5130
1736.0000;7218.9060
1737.0000;7218.3580
1738.0000;7212.1630
1739.0000;7205.9880
1740.0000;7210.7400
1741.0000;7226.3400
1742.0000;7233.5380
1743.0000;7216.5020
1744.0000;7196.8030
1745.0000;7199.5800
1746.0000;7217.8230
1747.0000;7228.2010
1748.0000;7222.7120
1749.0000;7212.8160
1750.0000;7205.3900
1751.0000;7201.7880
1752.0000;7207.0950
1753.0000;7218.4600
1754.0000;7220.9430
1755.0000;7206.9780
1756.0000;7194.1210
1757.0000;7200.2210
1758.0000;7216.4130
1759.0000;7228.4440
1760.0000;7232.8590
1761.0000;7231.9850
1762.0000;7226.0680
1763.0000;7220.3800
1764.0000;7224.4560
1765.0000;7234.4330
1766.0000;7242.6860
1767.0000;7245.8410
1768.0000;7244.8520
1769.0000;7240.4360
1770.0000;7233.1740
1771.0000;7225.4240
1772.0000;7219.5540
1773.0000;7218.3260
1774.0000;7223.0430
1775.0000;7218.6270
1776.0000;7187.7710
1777.0000;7154.7020
1778.0000;7149.9180
1779.0000;7172.2060
1780.0000;7186.9770
1781.0000;7180.2720
1782.0000;7172.2000
1783.0000;7177.8550
1784.0000;7190.0200
1785.0000;7204.5830
1786.0000;7216.7720
1787.0000;7216.1460
1788.0000;7195.8330
1789.0000;7176.8600
1790.0000;7184.8970
1791.0000;7204.1350
1792.0000;7203.8560
1793.0000;7181.8910
1794.0000;7165.7720
1795.0000;7170.6060
1796.0000;7180.3520
1797.0000;7177.2300
1798.0000;7167.7730
1799.0000;7160.9060
1800.0000;7158.9770
1801.0000;7156.1450
1802.0000;7148.3320
1803.0000;7142.4720
1804.0000;7143.0830
1805.0000;7148.4140
1806.0000;7150.1940
1807.0000;7146.2030
1808.0000;7140.9130
1809.0000;7138.1410
1810.0000;7132.7350
1811.0000;7117.5490
1812.0000;7098.5540
1813.0000;7086.7850
1814.0000;7086.9450
1815.0000;7090.6810
1816.0000;7089.0940
1817.0000;7087.2020
1818.0000;7086.8780
1819.0000;7086.4430
1820.0000;7079.8710
1821.0000;7066.0110
1822.0000;7058.1700
1823.0000;7065.4720
1824.0000;7081.5780
1825.0000;7096.1480
1826.0000;7106.8800
1827.0000;7116.2040
1828.0000;7122.4100
1829.0000;7123.1140
1830.0000;7120.4360
1831.0000;7111.9250
1832.0000;7099.7280
1833.0000;7086.4490
1834.0000;7077.9780
1835.0000;7077.9910
1836.0000;7079.2440
1837.0000;7071.7980
1838.0000;7065.3110
1839.0000;7066.2890
1840.0000;7074.8310
1841.0000;7084.2140
1842.0000;7091.1640
1843.0000;7092.6730
1844.0000;7085.0660
1845.0000;7075.5690
1846.0000;7079.1850
1847.0000;7090.8690
1848.0000;7088.7360
1849.0000;7065.4200
1850.0000;7048.9310
1851.0000;7061.6180
1852.0000;7088.2930
1853.0000;7104.5370
1854.0000;7111.1070
1855.0000;7122.1260
1856.0000;7139.2030
1857.0000;7152.9850
1858.0000;7161.3680
1859.0000;7160.9050
1860.0000;7156.1470
1861.0000;7147.4480
1862.0000;7143.4330
1863.0000;7147.2280
1864.0000;7149.3030
1865.0000;7140.6300
1866.0000;7132.5140
1867.0000;7137.9600
1868.0000;7151.7810
1869.0000;7156.9990
1870.0000;7148.5400
1871.0000;7137.7200
1872.0000;7132.7060
1873.0000;7130.5170
1874.0000;7126.6140
1875.0000;7124.6990
1876.0000;7127.2200
1877.0000;7134.7300
1878.0000;7144.3620
1879.0000;7155.0000
1880.0000;7159.4300
1881.0000;7148.0730
1882.0000;7131.5500
1883.0000;7136.7460
1884.0000;7166.6840
1885.0000;7195.6840
1886.0000;7208.8430
1887.0000;7208.1550
1888.0000;7199.0380
1889.0000;7183.6000
1890.0000;7179.1600
1891.0000;7188.1870
1892.0000;7201.5410
1893.0000;7214.9200
1894.0000;7222.9210
1895.0000;7221.3340
1896.0000;7212.9370
1897.0000;7207.2600
1898.0000;7208.2620
1899.0000;7222.1750
1900.0000;7251.4360
1901.0000;7278.8870
1902.0000;7289.8860
1903.0000;7286.2480
1904.0000;7282.5160
1905.0000;7276.6940
1906.0000;7271.8180
1907.0000;7269.8160
1908.0000;7264.8580
1909.0000;7250.1100
1910.0000;7238.6260
1911.0000;7244.0480
1912.0000;7261.3040
1913.0000;7269.2320
1914.0000;7262.8900
1915.0000;7261.7610
1916.0000;7279.7630
1917.0000;7296.9080
1918.0000;7295.8140
1919.0000;7282.6500
1920.0000;7275.3790
1921.0000;7277.6070
1922.0000;7286.2570
1923.0000;7301.1420
1924.0000;7313.6140
1925.0000;7315.8170
1926.0000;7311.0890
1927.0000;7311.9830
1928.0000;7317.0970
1929.0000;7320.3660
1930.0000;7319.4650
1931.0000;7322.6310
1932.0000;7336.5140
1933.0000;7353.8720
1934.0000;7371.9720
1935.0000;7380.3940
1936.0000;7365.1450
1937.0000;7324.0980
1938.0000;7293.2700
1939.0000;7296.3620
1940.0000;7317.0250
1941.0000;7330.0060
1942.0000;7338.1110
1943.0000;7335.5030
1944.0000;7324.4750
1945.0000;7330.9080
1946.0000;7368.6160
1947.0000;7404.5690
1948.0000;7410.6880
1949.0000;7398.8580
1950.0000;7397.8980
1951.0000;7404.7640
1952.0000;7414.4290
1953.0000;7424.7690
1954.0000;7433.6450
1955.0000;7440.8890
1956.0000;7443.0390
1957.0000;7441.7290
1958.0000;7436.8750
1959.0000;7433.5620
1960.0000;7433.9410
1961.0000;7441.4140
1962.0000;7458.5260
1963.0000;7470.8000
1964.0000;7463.2280
1965.0000;7447.8970
1966.0000;7451.5500
1967.0000;7468.3930
1968.0000;7469.5330
1969.0000;7446.5210
1970.0000;7431.2300
1971.0000;7447.3130
1972.0000;7474.6820
1973.0000;7489.4870
1974.0000;7493.4150
1975.0000;7494.7470
1976.0000;7493.4640
1977.0000;7495.7390
1978.0000;7505.4450
1979.0000;7517.8000
1980.0000;7534.0360
1981.0000;7544.6400
1982.0000;7541.0300
1983.0000;7527.1280
1984.0000;7527.9140
1985.0000;7549.9210
1986.0000;7571.5640
1987.0000;7579.6880
1988.0000;7576.7680
1989.0000;7566.1940
1990.0000;7553.8350
1991.0000;7559.5570
1992.0000;7582.0240
1993.0000;7594.3660
1994.0000;7583.8050
1995.0000;7568.6460
1996.0000;7565.6950
1997.0000;7566.6710
1998.0000;7561.0850
1999.0000;7554.7010
2000.0000;7556.7700
2001.0000;7568.5760
2002.0000;7577.8190
2003.0000;7576.0440
2004.0000;7574.9130
2005.0000;7588.9790
2006.0000;7605.4680
2007.0000;7611.5140
2008.0000;7604.6630
2009.0000;7592.3740
2010.0000;7578.0100
2011.0000;7573.9300
2012.0000;7589.0140
2013.0000;7610.5880
2014.0000;7625.5720
2015.0000;7628.3320
2016.0000;7614.0210
2017.0000;7587.1680
2018.0000;7577.4700
2019.0000;7599.5900
2020.0000;7625.1200
2021.0000;7632.2630
2022.0000;7629.6010
2023.0000;7629.0740
2024.0000;7626.9940
2025.0000;7622.6030
2026.0000;7618.3620
2027.0000;7623.1980
2028.0000;7641.4340
2029.0000;7658.9670
2030.0000;7668.0460
2031.0000;7658.7890
2032.0000;7619.6280
2033.0000;7568.9760
2034.0000;7556.7590
2035.0000;7592.3430
2036.0000;7627.2190
2037.0000;7633.3350
2038.0000;7626.3380
2039.0000;7619.5930
2040.0000;7609.5200
2041.0000;7600.9500
2042.0000;7597.9010
2043.0000;7605.6190
2044.0000;7623.0700
2045.0000;7630.8650
2046.0000;7615.3640
2047.0000;7599.6000
2048.0000;7606.1150
2049.0000;7623.7470
2050.0000;7635.9620
2051.0000;7640.1930
2052.0000;7636.6210
2053.0000;7624.9850
2054.0000;7613.8960
2055.0000;7610.4940
2056.0000;7612.2000
2057.0000;7614.9000
2058.0000;7619.3620
2059.0000;7622.1680
2060.0000;7622.9370
2061.0000;7623.6530
2062.0000;7624.6040
2063.0000;7628.0230
2064.0000;7635.9010
2065.0000;7639.6000
2066.0000;7629.9900
2067.0000;7616.2610
2068.0000;7615.3610
2069.0000;7624.3150
2070.0000;7626.0990
2071.0000;7617.6270
2072.0000;7610.6840
2073.0000;7611.3080
2074.0000;7613.9960
2075.0000;7612.7270
2076.0000;7610.8460
2077.0000;7611.6110
2078.0000;7613.2020
2079.0000;7609.8120
2080.0000;7601.6830
2081.0000;7595.9640
2082.0000;7596.6650
2083.0000;7603.7170
2084.0000;7619.0720
2085.0000;7630.3480
2086.0000;7621.0000
2087.0000;7598.9100
2088.0000;7591.7290
2089.0000;7604.2350
2090.0000;7619.6930
2091.0000;7629.6150
2092.0000;7638.7160
2093.0000;7649.4290
2094.0000;7657.4730
2095.0000;7666.6050
2096.0000;7671.1960
2097.0000;7668.5480
2098.0000;7659.6280
2099.0000;7655.9290
2100.0000;7663.0180
2101.0000;7673.5840
2102.0000;7683.9130
2103.0000;7687.2570
2104.0000;7675.0210
2105.0000;7657.8450
2106.0000;7659.0120
2107.0000;7677.4470
2108.0000;7691.7250
2109.0000;7695.5050
2110.0000;7699.7470
2111.0000;7711.2520
2112.0000;7718.0000
2113.0000;7713.2380
2114.0000;7701.9900
2115.0000;7697.3620
2116.0000;7696.9240
2117.0000;7688.2720
2118.0000;7672.2090
2119.0000;7662.4790
2120.0000;7666.0600
2121.0000;7675.9860
2122.0000;7685.1320
2123.0000;7691.1240
2124.0000;7687.4540
2125.0000;7680.0770
2126.0000;7685.3390
2127.0000;7702.2080
2128.0000;7720.1360
2129.0000;7732.4160
2130.0000;7731.6150
2131.0000;7712.6390
2132.0000;7689.7400
2133.0000;7680.8480
2134.0000;7684.9270
2135.0000;7693.1080
2136.0000;7703.4490
2137.0000;7706.5970
2138.0000;7699.3400
2139.0000;7686.8190
2140.0000;7671.9480
2141.0000;7666.3730
2142.0000;7680.5800
2143.0000;7701.2080
2144.0000;7709.7830
2145.0000;7704.9540
2146.0000;7693.1650
2147.0000;7674.4920
2148.0000;7652.1480
2149.0000;7631.2780
2150.0000;7624.8110
2151.0000;7641.4450
2152.0000;7660.0000
2153.0000;7651.3970
2154.0000;7632.6090
2155.0000;7627.9200
2156.0000;7635.0260
2157.0000;7644.9820
2158.0000;7653.7900
2159.0000;7650.2910
2160.0000;7629.7660
2161.0000;7612.7120
2162.0000;7613.7290
2163.0000;7627.6770
2164.0000;7645.1840
2165.0000;7662.4740
2166.0000;7673.0880
2167.0000;7672.2790
2168.0000;7665.7770
2169.0000;7654.3960
2170.0000;7641.3960
2171.0000;7631.3170
2172.0000;7623.2250
2173.0000;7613.2650
2174.0000;7611.2640
2175.0000;7623.7200
2176.0000;7639.7520
2177.0000;7632.9360
2178.0000;7609.0120
2179.0000;7598.1240
2180.0000;7608.6190
2181.0000;7620.3320
2182.0000;7622.9070
2183.0000;7620.7930
2184.0000;7613.0030
2185.0000;7609.6960
2186.0000;7629.7810
2187.0000;7652.7930
2188.0000;7644.8700
2189.0000;7608.2370
2190.0000;7580.7280
2191.0000;7573.7740
2192.0000;7571.7160
2193.0000;7567.6400
2194.0000;7566.2010
2195.0000;7562.9370
2196.0000;7565.2210
2197.0000;7578.1790
2198.0000;7595.4130
2199.0000;7609.2670
2200.0000;7612.5580
2201.0000;7601.0420
2202.0000;7575.7720
2203.0000;7561.4260
2204.0000;7571.5920
2205.0000;7586.6580
2206.0000;7589.2130
2207.0000;7587.8330
2208.0000;7591.6510
2209.0000;7594.5170
2210.0000;7591.1360
2211.0000;7582.5140
2212.0000;7574.1900
2213.0000;7569.9980
2214.0000;7574.9130
2215.0000;7591.2050
2216.0000;7606.4680
2217.0000;7612.6300
2218.0000;7608.3820
2219.0000;7594.3590
2220.0000;7580.0950
2221.0000;7587.0000
2222.0000;7607.0510
2223.0000;7613.3310
2224.0000;7601.7430
2225.0000;7590.5740
2226.0000;7586.7660
2227.0000;7589.2060
2228.0000;7599.4710
2229.0000;7606.2270
2230.0000;7598.3910
2231.0000;7581.7470
2232.0000;7564.3840
2233.0000;7552.8860
2234.0000;7554.7450
2235.0000;7568.0120
2236.0000;7568.5770
2237.0000;7551.9010
2238.0000;7543.0250
2239.0000;7554.8440
2240.0000;7563.8100
2241.0000;7551.5550
2242.0000;7533.0550
2243.0000;7520.9920
2244.0000;7516.5070
2245.0000;7513.8200
2246.0000;7516.9780
2247.0000;7525.7380
2248.0000;7538.6830
2249.0000;7549.4530
2250.0000;7554.3130
2251.0000;7563.9640
2252.0000;7585.6370
2253.0000;7601.1620
2254.0000;7600.4230
2255.0000;7586.1630
2256.0000;7572.1200
2257.0000;7557.0640
2258.0000;7536.6220
2259.0000;7521.9220
2260.0000;7530.4150
2261.0000;7562.1750
2262.0000;7577.5930
2263.0000;7558.5290
2264.0000;7542.2970
2265.0000;7553.9920
2266.0000;7574.7970
2267.0000;7589.7730
2268.0000;7598.1250
2269.0000;7604.1850
2270.0000;7600.1930
2271.0000;7581.5100
2272.0000;7555.2330
2273.0000;7551.3460
2274.0000;7573.8560
2275.0000;7581.5460
2276.0000;7555.9870
2277.0000;7531.1460
2278.0000;7530.6490
2279.0000;7537.1450
2280.0000;7530.8880
2281.0000;7520.6080
2282.0000;7507.8450
2283.0000;7499.3410
2284.0000;7502.1860
2285.0000;7516.0380
2286.0000;7526.5970
2287.0000;7530.1530
2288.0000;7538.2040
2289.0000;7553.2910
2290.0000;7557.8810
2291.0000;7540.3800
2292.0000;7523.3880
2293.0000;7532.3030
2294.0000;7552.6530
2295.0000;7567.0770
2296.0000;7571.7670
2297.0000;7565.1970
2298.0000;7550.0660
2299.0000;7546.8090
2300.0000;7557.3680
2301.0000;7561.9740
2302.0000;7553.5660
2303.0000;7546.8320
2304.0000;7550.4940
2305.0000;7553.2050
2306.0000;7543.4490
2307.0000;7536.0290
2308.0000;7547.3750
2309.0000;7564.4530
2310.0000;7565.0670
2311.0000;7549.7590
2312.0000;7530.1660
2313.0000;7511.2520
2314.0000;7500.3910
2315.0000;7502.4650
2316.0000;7513.2150
2317.0000;7528.2470
2318.0000;7542.7000
2319.0000;7551.9540
2320.0000;7546.9230
2321.0000;7521.7900
2322.0000;7491.9170
2323.0000;7474.4360
2324.0000;7477.5630
2325.0000;7497.4070
2326.0000;7529.0790
2327.0000;7554.8990
2328.0000;7563.8980
2329.0000;7559.6530
2330.0000;7542.5630
2331.0000;7530.3190
2332.0000;7535.2330
2333.0000;7543.5280
2334.0000;7544.6680
2335.0000;7542.2000
2336.0000;7537.0630
2337.0000;7533.0610
2338.0000;7534.6720
2339.0000;7543.5830
2340.0000;7560.9510
2341.0000;7581.1530
2342.0000;7594.5760
2343.0000;7595.8040
2344.0000;7587.6660
2345.0000;7572.9670
2346.0000;7571.2310
2347.0000;7594.6820
2348.0000;7618.8730
2349.0000;7624.8810
2350.0000;7618.0000
2351.0000;7606.8700
2352.0000;7594.5880
2353.0000;7590.8270
2354.0000;7596.6040
2355.0000;7607.0240
2356.0000;7619.6570
2357.0000;7629.5560
2358.0000;7632.2660
2359.0000;7627.7850
2360.0000;7615.9930
2361.0000;7603.3700
2362.0000;7595.1640
2363.0000;7591.4750
2364.0000;7592.0750
2365.0000;7594.1910
2366.0000;7588.8550
2367.0000;7588.0730
2368.0000;7606.1660
2369.0000;7627.8440
2370.0000;7627.0360
2371.0000;7610.7890
2372.0000;7610.3100
2373.0000;7625.0830
2374.0000;7636.6060
2375.0000;7639.7430
2376.0000;7640.1210
2377.0000;7638.5210
2378.0000;7631.8310
2379.0000;7619.9280
2380.0000;7610.6930
2381.0000;7611.0120
2382.0000;7613.5170
2383.0000;7606.2310
2384.0000;7598.6400
2385.0000;7600.4380
2386.0000;7605.4610
2387.0000;7598.9040
2388.0000;7585.9620
2389.0000;7582.2350
2390.0000;7587.3330
2391.0000;7581.0480
2392.0000;7563.6980
2393.0000;7561.2110
2394.0000;7581.9480
2395.0000;7592.0840
2396.0000;7571.4810
2397.0000;7556.1670
2398.0000;7575.2450
2399.0000;7598.2740
2400.0000;7596.4090
2401.0000;7585.0720
2402.0000;7584.8600
2403.0000;7590.5960
2404.0000;7595.0250
2405.0000;7600.0610
2406.0000;7610.4400
2407.0000;7623.2580
2408.0000;7634.1610
2409.0000;7638.4070
2410.0000;7632.2250
2411.0000;7614.6410
2412.0000;7597.5420
2413.0000;7588.3960
2414.0000;7580.2730
2415.0000;7566.9880
2416.0000;7563.8220
2417.0000;7577.1600
2418.0000;7598.8000
2419.0000;7614.7780
2420.0000;7623.3650
2421.0000;7627.0110
2422.0000;7625.0830
2423.0000;7631.2430
2424.0000;7638.2040
2425.0000;7632.8060
2426.0000;7616.2190
2427.0000;7604.0030
2428.0000;7601.6760
2429.0000;7607.8150
2430.0000;7621.2750
2431.0000;7630.8190
2432.0000;7628.7580
2433.0000;7621.2030
2434.0000;7613.1480
2435.0000;7605.9540
2436.0000;7602.7450
2437.0000;7602.5270
2438.0000;7599.4980
2439.0000;7600.3930
2440.0000;7609.1640
2441.0000;7622.7760
2442.0000;7638.1780
2443.0000;7645.5120
2444.0000;7632.4960
2445.0000;7602.6500
2446.0000;7580.4860
2447.0000;7575.0530
2448.0000;7583.4600
2449.0000;7601.0770
2450.0000;7590.3380
2451.0000;7537.9780
2452.0000;7499.3410
2453.0000;7503.6100
2454.0000;7525.4870
2455.0000;7546.1380
2456.0000;7555.6270
2457.0000;7537.7280
2458.0000;7514.8000
2459.0000;7517.6930
2460.0000;7533.5910
2461.0000;7541.4780
2462.0000;7546.6380
2463.0000;7555.9230
2464.0000;7565.4130
2465.0000;7577.1580
2466.0000;7583.7970
2467.0000;7576.2430
2468.0000;7556.1770
2469.0000;7540.1030
2470.0000;7535.8870
2471.0000;7539.4290
2472.0000;7549.3190
2473.0000;7554.6290
2474.0000;7549.0310
2475.0000;7540.3410
2476.0000;7533.6050
2477.0000;7532.3110
2478.0000;7539.9150
2479.0000;7547.8060
2480.0000;7544.8970
2481.0000;7541.3790
2482.0000;7552.8640
2483.0000;7563.4000
2484.0000;7551.5690
2485.0000;7532.3270
2486.0000;7533.7140
2487.0000;7551.4140
2488.0000;7570.8160
2489.0000;7581.1550
2490.0000;7564.2210
2491.0000;7525.2150
2492.0000;7502.7150
2493.0000;7507.0970
2494.0000;7512.0810
2495.0000;7512.9290
2496.0000;7521.9800
2497.0000;7540.4960
2498.0000;7555.8140
2499.0000;7560.1310
2500.0000;7560.3060
2501.0000;7561.9420
2502.0000;7563.9560
2503.0000;7568.5860
2504.0000;7574.0480
2505.0000;7580.5990
2506.0000;7584.5610
2507.0000;7587.0750
2508.0000;7582.5650
2509.0000;7563.9700
2510.0000;7548.1270
2511.0000;7561.9010
2512.0000;7590.3270
2513.0000;7591.6330
2514.0000;7572.8520
2515.0000;7571.4130
2516.0000;7585.4880
2517.0000;7588.8430
2518.0000;7579.3980
2519.0000;7571.6230
2520.0000;7568.4950
2521.0000;7561.0310
2522.0000;7549.3550
2523.0000;7544.8020
2524.0000;7551.6840
2525.0000;7546.2430
2526.0000;7516.5230
2527.0000;7495.9560
2528.0000;7505.9500
2529.0000;7524.3420
2530.0000;7531.5330
2531.0000;7534.6650
2532.0000;7538.6360
2533.0000;7536.6590
2534.0000;7524.2400
2535.0000;7513.7390
2536.0000;7522.9030
2537.0000;7536.1860
2538.0000;7525.7490
2539.0000;7505.0760
2540.0000;7497.5160
2541.0000;7502.4380
2542.0000;7508.1570
2543.0000;7513.7960
2544.0000;7517.5430
2545.0000;7516.1210
2546.0000;7506.4770
2547.0000;7491.3130
2548.0000;7483.8680
2549.0000;7487.5090
2550.0000;7491.1990
2551.0000;7492.0290
2552.0000;7490.0620
2553.0000;7485.0650
2554.0000;7481.3050
2555.0000;7480.9810
2556.0000;7482.4680
2557.0000;7484.7930
2558.0000;7486.1800
2559.0000;7485.1310
2560.0000;7482.3540
2561.0000;7478.7930
2562.0000;7475.7250
2563.0000;7475.3330
2564.0000;7472.6770
2565.0000;7460.2850
2566.0000;7452.2000
2567.0000;7462.6430
2568.0000;7475.5010
2569.0000;7464.6070
2570.0000;7450.5060
2571.0000;7469.0250
2572.0000;7488.9100
2573.0000;7458.8320
2574.0000;7409.4910
2575.0000;7403.1340
2576.0000;7430.5360
2577.0000;7449.7600
2578.0000;7457.6020
2579.0000;7455.5020
2580.0000;7445.5520
2581.0000;7446.7770
2582.0000;7458.5240
2583.0000;7465.2610
2584.0000;7465.4330
2585.0000;7470.0990
2586.0000;7478.9460
2587.0000;7483.5310
2588.0000;7482.0190
2589.0000;7488.0600
2590.0000;7500.7240
2591.0000;7487.5920
2592.0000;7440.1520
2593.0000;7402.8060
2594.0000;7399.8870
2595.0000;7425.7470
2596.0000;7474.1430
2597.0000;7506.8890
2598.0000;7495.9410
2599.0000;7475.9190
2600.0000;7471.2920
2601.0000;7478.7740
2602.0000;7501.2280
2603.0000;7519.5420
2604.0000;7518.6560
2605.0000;7498.1680
2606.0000;7459.5820
2607.0000;7431.7070
2608.0000;7447.0830
2609.0000;7471.3680
2610.0000;7449.5060
2611.0000;7423.5990
2612.0000;7439.0370
2613.0000;7472.8750
2614.0000;7491.8160
2615.0000;7494.0730
2616.0000;7483.0990
2617.0000;7463.3620
2618.0000;7454.5240
2619.0000;7453.1710
2620.0000;7442.4810
2621.0000;7436.2320
2622.0000;7454.6590
2623.0000;7484.0970
2624.0000;7492.6210
2625.0000;7481.1080
2626.0000;7471.9920
2627.0000;7466.4540
2628.0000;7466.1650
2629.0000;7469.4170
2630.0000;7460.7010
2631.0000;7449.1020
2632.0000;7467.4870
2633.0000;7510.1210
2634.0000;7530.0900
2635.0000;7518.5510
2636.0000;7502.8830
2637.0000;7487.7800
2638.0000;7468.0010
2639.0000;7449.0040
2640.0000;7438.1390
2641.0000;7439.4390
2642.0000;7436.4700
2643.0000;7427.5980
2644.0000;7429.9160
2645.0000;7447.1060
2646.0000;7470.2890
2647.0000;7490.2010
2648.0000;7494.6560
2649.0000;7477.1930
2650.0000;7447.6250
2651.0000;7415.9010
2652.0000;7413.7970
2653.0000;7454.8710
2654.0000;7488.6010
2655.0000;7487.6530
2656.0000;7470.2910
2657.0000;7446.2420
2658.0000;7435.8730
2659.0000;7454.6920
2660.0000;7476.8200
2661.0000;7483.4690
2662.0000;7482.4170
2663.0000;7476.6920
2664.0000;7476.7570
2665.0000;7492.9760
2666.0000;7500.6640
2667.0000;7484.0250
2668.0000;7466.2510
2669.0000;7465.4660
2670.0000;7462.7190
2671.0000;7443.8300
2672.0000;7425.6210
2673.0000;7419.6220
2674.0000;7412.4940
2675.0000;7389.1980
2676.0000;7376.7770
2677.0000;7392.9010
2678.0000;7410.6700
2679.0000;7400.6740
2680.0000;7390.4330
2681.0000;7407.3240
2682.0000;7416.6290
2683.0000;7385.2480
2684.0000;7360.3370
2685.0000;7387.5110
2686.0000;7423.8070
2687.0000;7423.3270
2688.0000;7404.1300
2689.0000;7384.3470
2690.0000;7374.3560
2691.0000;7393.7400
2692.0000;7411.7800
2693.0000;7387.0670
2694.0000;7361.0790
2695.0000;7375.6100
2696.0000;7406.5910
2697.0000;7424.0320
2698.0000;7431.6710
2699.0000;7437.0050
2700.0000;7433.8610
2701.0000;7426.7570
2702.0000;7418.4970
2703.0000;7417.6700
2704.0000;7417.7080
2705.0000;7409.8030
2706.0000;7397.6360
2707.0000;7379.0940
2708.0000;7371.2310
2709.0000;7388.4100
2710.0000;7413.1100
2711.0000;7416.9470
2712.0000;7413.5310
2713.0000;7424.0330
2714.0000;7433.9170
2715.0000;7432.8880
2716.0000;7428.2310
2717.0000;7433.5190
2718.0000;7438.3530
2719.0000;7430.0060
2720.0000;7425.4130
2721.0000;7448.9230
2722.0000;7468.2240
2723.0000;7446.6980
2724.0000;7412.5010
2725.0000;7401.3570
2726.0000;7407.1730
2727.0000;7417.4610
2728.0000;7428.7940
2729.0000;7426.5210
2730.0000;7426.2480
2731.0000;7452.8440
2732.0000;7470.0030
2733.0000;7441.0400
2734.0000;7401.9860
2735.0000;7393.6800
2736.0000;7404.4230
2737.0000;7416.3320
2738.0000;7429.3700
2739.0000;7439.1120
2740.0000;7435.3880
2741.0000;7410.3750
2742.0000;7387.9840
2743.0000;7394.7160
2744.0000;7403.9350
2745.0000;7384.7150
2746.0000;7365.8590
2747.0000;7369.8650
2748.0000;7379.3470
2749.0000;7375.8500
2750.0000;7375.2330
2751.0000;7387.0390
2752.0000;7404.5210
2753.0000;7423.7650
2754.0000;7433.0130
2755.0000;7427.1820
2756.0000;7409.5580
2757.0000;7388.7680
2758.0000;7376.0170
2759.0000;7383.4450
2760.0000;7378.8370
2761.0000;7337.8000
2762.0000;7314.0790
2763.0000;7342.1560
2764.0000;7364.8900
2765.0000;7343.9360
2766.0000;7329.8050
2767.0000;7349.3190
2768.0000;7364.9050
2769.0000;7356.8820
2770.0000;7344.6960
2771.0000;7338.5890
2772.0000;7333.2380
2773.0000;7328.8250
2774.0000;7330.2590
2775.0000;7338.7820
2776.0000;7347.6630
2777.0000;7352.7590
2778.0000;7354.2600
2779.0000;7351.9820
2780.0000;7350.3870
2781.0000;7351.6580
2782.0000;7355.1990
2783.0000;7360.2030
2784.0000;7363.1770
2785.0000;7363.3670
2786.0000;7368.7870
2787.0000;7377.6360
2788.0000;7374.9260
2789.0000;7359.3560
2790.0000;7348.0710
2791.0000;7347.3450
2792.0000;7356.6810
2793.0000;7371.5840
2794.0000;7371.2750
2795.0000;7357.4210
2796.0000;7355.3980
2797.0000;7364.1490
2798.0000;7364.0100
2799.0000;7355.6210
2800.0000;7343.6060
2801.0000;7340.0710
2802.0000;7366.4740
2803.0000;7411.1030
2804.0000;7442.7970
2805.0000;7451.2690
2806.0000;7445.8480
2807.0000;7429.7220
2808.0000;7431.1350
2809.0000;7436.0400
2810.0000;7418.2640
2811.0000;7397.1590
2812.0000;7398.5680
2813.0000;7407.7640
2814.0000;7391.3130
2815.0000;7377.6750
2816.0000;7399.8990
2817.0000;7423.6610
2818.0000;7406.8240
2819.0000;7384.7680
2820.0000;7394.7760
2821.0000;7413.5460
2822.0000;7419.8480
2823.0000;7420.4800
2824.0000;7418.1750
2825.0000;7422.8810
2826.0000;7443.9800
2827.0000;7449.9250
2828.0000;7422.3530
2829.0000;7405.5450
2830.0000;7424.6740
2831.0000;7442.1510
2832.0000;7439.4600
2833.0000;7441.3860
2834.0000;7454.1440
2835.0000;7459.7220
2836.0000;7453.8710
2837.0000;7460.6500
2838.0000;7480.3740
2839.0000;7477.7570
2840.0000;7449.8540
2841.0000;7434.3650
2842.0000;7439.1260
2843.0000;7444.2560
2844.0000;7446.2500
2845.0000;7436.6630
2846.0000;7423.4250
2847.0000;7430.9830
2848.0000;7452.1630
2849.0000;7456.5710
2850.0000;7447.7660
2851.0000;7440.9550
2852.0000;7440.4440
2853.0000;7454.4290
2854.0000;7471.4200
2855.0000;7473.6290
2856.0000;7462.2000
2857.0000;7443.1880
2858.0000;7428.7890
2859.0000;7430.8490
2860.0000;7446.1910
2861.0000;7466.0940
2862.0000;7481.4890
2863.0000;7485.0260
2864.0000;7476.7580
2865.0000;7461.7070
2866.0000;7447.6480
2867.0000;7443.4170
2868.0000;7442.4940
2869.0000;7441.5260
2870.0000;7438.9770
2871.0000;7433.6040
2872.0000;7426.3510
2873.0000;7419.3320
2874.0000;7419.1780
2875.0000;7426.9320
2876.0000;7430.8840
2877.0000;7431.1480
2878.0000;7444.7720
2879.0000;7462.0770
2880.0000;7451.5500
2881.0000;7422.0680
2882.0000;7415.4340
2883.0000;7429.8920
2884.0000;7446.7100
2885.0000;7459.3560
2886.0000;7457.6250
2887.0000;7447.7290
2888.0000;7449.0090
2889.0000;7452.0800
2890.0000;7445.2790
2891.0000;7443.2180
2892.0000;7456.3790
2893.0000;7481.6680
2894.0000;7517.0890
2895.0000;7537.5000
2896.0000;7527.6070
2897.0000;7499.8530
2898.0000;7468.6670
2899.0000;7454.5170
2900.0000;7469.5440
2901.0000;7499.5710
2902.0000;7529.5790
2903.0000;7525.4380
2904.0000;7482.1800
2905.0000;7446.1180
2906.0000;7435.2920
2907.0000;7446.9110
2908.0000;7479.5840
2909.0000;7510.5420
2910.0000;7526.7300
2911.0000;7524.2910
2912.0000;7502.9910
2913.0000;7481.2540
2914.0000;7467.1240
2915.0000;7464.3820
2916.0000;7479.4650
2917.0000;7509.1140
2918.0000;7533.0400
2919.0000;7529.7920
2920.0000;7520.8870
2921.0000;7528.1410
2922.0000;7535.0690
2923.0000;7534.5380
2924.0000;7528.9470
2925.0000;7520.4670
2926.0000;7513.6020
2927.0000;7511.4820
2928.0000;7511.0690
2929.0000;7511.4980
2930.0000;7510.3790
2931.0000;7505.5270
2932.0000;7489.3040
2933.0000;7471.7330
2934.0000;7475.8340
2935.0000;7490.5380
2936.0000;7478.7300
2937.0000;7455.2590
2938.0000;7445.4260
2939.0000;7450.9990
2940.0000;7469.9440
2941.0000;7485.7880
2942.0000;7476.9270
2943.0000;7463.5510
2944.0000;7463.4300
2945.0000;7468.1490
2946.0000;7473.6690
2947.0000;7469.5840
2948.0000;7453.4690
2949.0000;7466.3010
2950.0000;7511.9240
2951.0000;7524.9000
2952.0000;7496.9820
2953.0000;7481.8240
2954.0000;7484.7510
2955.0000;7489.0280
2956.0000;7489.7570
2957.0000;7473.3670
2958.0000;7453.0680
2959.0000;7453.3680
2960.0000;7463.1780
2961.0000;7457.1830
2962.0000;7455.9740
2963.0000;7477.7150
2964.0000;7489.3270
2965.0000;7467.2030
2966.0000;7436.6460
2967.0000;7417.6660
2968.0000;7432.9190
2969.0000;7484.4340
2970.0000;7501.2760
2971.0000;7466.2210
2972.0000;7458.2460
2973.0000;7481.4940
2974.0000;7487.9180
2975.0000;7478.4800
2976.0000;7474.9070
2977.0000;7474.8440
2978.0000;7468.9180
2979.0000;7470.6750
2980.0000;7497.0230
2981.0000;7523.3150
2982.0000;7522.4140
2983.0000;7512.7210
2984.0000;7512.1470
2985.0000;7514.8370
2986.0000;7519.7610
2987.0000;7520.5050
2988.0000;7514.2220
2989.0000;7503.8490
2990.0000;7494.1060
2991.0000;7495.1970
2992.0000;7505.8990
2993.0000;7510.6210
2994.0000;7506.8740
2995.0000;7492.5320
2996.0000;7486.2310
2997.0000;7520.9730
2998.0000;7558.4660
2999.0000;7550.2340
3000.0000;7536.5040
3001.0000;7560.1980
3002.0000;7582.0800
3003.0000;7580.3880
3004.0000;7562.9770
3005.0000;7537.6700
3006.0000;7532.6130
3007.0000;7553.7690
3008.0000;7562.8530
3009.0000;7552.1250
3010.0000;7525.8790
3011.0000;7504.8960
3012.0000;7531.4760
3013.0000;7580.4310
3014.0000;7598.4640
3015.0000;7588.9470
3016.0000;7566.7260
3017.0000;7551.3570
3018.0000;7570.3750
3019.0000;7567.1570
3020.0000;7511.0200
3021.0000;7484.4410
3022.0000;7519.4360
3023.0000;7539.5690
3024.0000;7528.7110
3025.0000;7518.3900
3026.0000;7512.7960
3027.0000;7513.7590
3028.0000;7516.1310
3029.0000;7500.6680
3030.0000;7486.9850
3031.0000;7502.2690
3032.0000;7520.6880
3033.0000;7512.9620
3034.0000;7499.3490
3035.0000;7494.0000
3036.0000;7497.3010
3037.0000;7508.9490
3038.0000;7515.0330
3039.0000;7509.0710
3040.0000;7489.3500
3041.0000;7468.9420
3042.0000;7482.5840
3043.0000;7516.3690
3044.0000;7521.9880
3045.0000;7501.4480
3046.0000;7464.2800
3047.0000;7445.9490
3048.0000;7485.7440
3049.0000;7520.1010
3050.0000;7501.4640
3051.0000;7473.8350
3052.0000;7459.1470
3053.0000;7463.2450
3054.0000;7485.5470
3055.0000;7497.1060
3056.0000;7493.4950
3057.0000;7491.4810
3058.0000;7491.7610
3059.0000;7495.4250
3060.0000;7504.8510
3061.0000;7522.8110
3062.0000;7537.3310
3063.0000;7539.1930
3064.0000;7529.5180
3065.0000;7513.4350
3066.0000;7507.4980
3067.0000;7519.3120
3068.0000;7530.2030
3069.0000;7533.7680
3070.0000;7527.8050
3071.0000;7516.7080
3072.0000;7513.9770
3073.0000;7520.2000
3074.0000;7528.4730
3075.0000;7541.1700
3076.0000;7559.1580
3077.0000;7565.4780
3078.0000;7551.2410
3079.0000;7540.1930
3080.0000;7543.8280
3081.0000;7538.8100
3082.0000;7525.6100
3083.0000;7528.5980
3084.0000;7544.8410
3085.0000;7550.4620
3086.0000;7548.4250
3087.0000;7549.1240
3088.0000;7553.6670
3089.0000;7566.6010
3090.0000;7574.8850
3091.0000;7569.5440
3092.0000;7571.4210
3093.0000;7588.2940
3094.0000;7604.9840
3095.0000;7613.0190
3096.0000;7608.5840
3097.0000;7596.6860
3098.0000;7602.2320
3099.0000;7616.4080
3100.0000;7620.6890
3101.0000;7617.1660
3102.0000;7609.3940
3103.0000;7606.9100
3104.0000;7617.1880
3105.0000;7629.1000
3106.0000;7634.8950
3107.0000;7625.3800
3108.0000;7607.3310
3109.0000;7615.7150
3110.0000;7641.3050
3111.0000;7649.1250
3112.0000;7641.6760
3113.0000;7628.8240
3114.0000;7623.9650
3115.0000;7643.4580
3116.0000;7647.1530
3117.0000;7615.1950
3118.0000;7593.3800
3119.0000;7598.8530
3120.0000;7618.4330
3121.0000;7639.9860
3122.0000;7629.6940
3123.0000;7605.2860
3124.0000;7617.3260
3125.0000;7626.7630
3126.0000;7589.9740
3127.0000;7551.5630
3128.0000;7542.2630
3129.0000;7556.3840
3130.0000;7587.5030
3131.0000;7616.8100
3132.0000;7628.5290
3133.0000;7615.9290
3134.0000;7585.8310
3135.0000;7564.6860
3136.0000;7562.6300
3137.0000;7584.0490
3138.0000;7599.9670
3139.0000;7583.8180
3140.0000;7564.0930
3141.0000;7558.3910
3142.0000;7576.6020
3143.0000;7607.3410
3144.0000;7595.0280
3145.0000;7553.1510
3146.0000;7535.4940
3147.0000;7548.1280
3148.0000;7584.9640
3149.0000;7622.6510
3150.0000;7636.0420
3151.0000;7633.3730
3152.0000;7620.3330
3153.0000;7600.4700
3154.0000;7581.1480
3155.0000;7568.2530
3156.0000;7570.2770
3157.0000;7587.9720
3158.0000;7607.4550
3159.0000;7605.5800
3160.0000;7594.8990
3161.0000;7588.6850
3162.0000;7596.4410
3163.0000;7620.7880
3164.0000;7637.4990
3165.0000;7638.6250
3166.0000;7641.8840
3167.0000;7637.1090
3168.0000;7606.8280
3169.0000;7577.8590
3170.0000;7580.1500
3171.0000;7592.6140
3172.0000;7594.2470
3173.0000;7599.6590
3174.0000;7609.4720
3175.0000;7608.7110
3176.0000;7598.5460
3177.0000;7598.9250
3178.0000;7605.1330
3179.0000;7601.8100
3180.0000;7601.2440
3181.0000;7614.0840
3182.0000;7629.5770
3183.0000;7639.3670
3184.0000;7641.0460
3185.0000;7634.5380
3186.0000;7630.8370
3187.0000;7635.0510
3188.0000;7651.9440
3189.0000;7673.1000
3190.0000;7685.8100
3191.0000;7695.0280
3192.0000;7707.5530
3193.0000;7717.9900
3194.0000;7723.8090
3195.0000;7727.8660
3196.0000;7723.8470
3197.0000;7696.8380
3198.0000;7660.4710
3199.0000;7633.8620
3200.0000;7637.9970
3201.0000;7680.4590
3202.0000;7704.5000
3203.0000;7674.4020
3204.0000;7639.9920
3205.0000;7624.7110
3206.0000;7638.2680
3207.0000;7673.0380
3208.0000;7696.8770
3209.0000;7699.9700
3210.0000;7683.0230
3211.0000;7652.0500
3212.0000;7623.7770
3213.0000;7608.1590
3214.0000;7612.5970
3215.0000;7624.4820
3216.0000;7635.4620
3217.0000;7624.8380
3218.0000;7617.7210
3219.0000;7657.5860
3220.0000;7697.3130
3221.0000;7698.7950
3222.0000;7677.9360
3223.0000;7648.7160
3224.0000;7648.6330
3225.0000;7672.7860
3226.0000;7661.8840
3227.0000;7641.4090
3228.0000;7663.2060
3229.0000;7684.0350
3230.0000;7668.0640
3231.0000;7650.4600
3232.0000;7646.8850
3233.0000;7644.0100
3234.0000;7641.8400
3235.0000;7641.9520
3236.0000;7639.6450
3237.0000;7625.7640
3238.0000;7609.0000
3239.0000;7597.4350
3240.0000;7605.6120
3241.0000;7633.3060
3242.0000;7637.3960
3243.0000;7614.6190
3244.0000;7608.9240
3245.0000;7610.1250
3246.0000;7587.2260
3247.0000;7584.3350
3248.0000;7631.0290
3249.0000;7667.1670
3250.0000;7663.6450
3251.0000;7661.1690
3252.0000;7663.0030
3253.0000;7665.6640
3254.0000;7663.2560
3255.0000;7647.2680
3256.0000;7635.4920
3257.0000;7641.8420
3258.0000;7662.0180
3259.0000;7687.1430
3260.0000;7687.0930
3261.0000;7666.1120
3262.0000;7666.5430
3263.0000;7681.2950
3264.0000;7697.9560
3265.0000;7699.1980
3266.0000;7675.5660
3267.0000;7678.3760
3268.0000;7712.3180
3269.0000;7711.5500
3270.0000;7689.4740
3271.0000;7711.4000
3272.0000;7744.0060
3273.0000;7750.9480
3274.0000;7727.9060
3275.0000;7682.1930
3276.0000;7679.8630
3277.0000;7724.0010
3278.0000;7728.9170
3279.0000;7705.2000
3280.0000;7694.1170
3281.0000;7697.9680
3282.0000;7720.2920
3283.0000;7734.2370
3284.0000;7726.8750
3285.0000;7714.8470
3286.0000;7702.9990
3287.0000;7693.7460
3288.0000;7693.0020
3289.0000;7700.0350
3290.0000;7715.7010
3291.0000;7734.9630
3292.0000;7746.5090
3293.0000;7741.9090
3294.0000;7721.4860
3295.0000;7694.2160
3296.0000;7673.0750
3297.0000;7670.0890
3298.0000;7688.0360
3299.0000;7693.6780
3300.0000;7674.3800
3301.0000;7672.6320
3302.0000;7689.6480
3303.0000;7700.7990
3304.0000;7702.2370
3305.0000;7693.1660
3306.0000;7683.1560
3307.0000;7681.7330
3308.0000;7689.2070
3309.0000;7699.5970
3310.0000;7687.5030
3311.0000;7667.6000
3312.0000;7673.8630
3313.0000;7686.4920
3314.0000;7686.0150
3315.0000;7680.6210
3316.0000;7672.7470
3317.0000;7661.8290
3318.0000;7653.2860
3319.0000;7653.5250
3320.0000;7657.8650
3321.0000;7655.1330
3322.0000;7660.6520
3323.0000;7678.4680
3324.0000;7689.1210
3325.0000;7690.8240
3326.0000;7704.6250
3327.0000;7713.3740
3328.0000;7698.2730
3329.0000;7677.8140
3330.0000;7667.6080
3331.0000;7662.9000
3332.0000;7666.8670
3333.0000;7685.0330
3334.0000;7702.6890
3335.0000;7695.0000
3336.0000;7682.8310
3337.0000;7685.5780
3338.0000;7684.2290
3339.0000;7679.2150
3340.0000;7697.0130
3341.0000;7722.7110
3342.0000;7724.1520
3343.0000;7717.3000
3344.0000;7722.3960
3345.0000;7725.5590
3346.0000;7722.5500
3347.0000;7713.0200
3348.0000;7704.8320
3349.0000;7712.8550
3350.0000;7729.7820
3351.0000;7743.1900
3352.0000;7750.7830
3353.0000;7750.3340
3354.0000;7749.8850
3355.0000;7750.1480
3356.0000;7747.6100
3357.0000;7757.1300
3358.0000;7791.4520
3359.0000;7820.9790
3360.0000;7825.8810
3361.0000;7808.5770
3362.0000;7777.1490
3363.0000;7756.2530
3364.0000;7753.5440
3365.0000;7766.7710
3366.0000;7784.2580
3367.0000;7793.6700
3368.0000;7794.1170
3369.0000;7783.1090
3370.0000;7764.7190
3371.0000;7749.3720
3372.0000;7746.1780
3373.0000;7767.4300
3374.0000;7807.1690
3375.0000;7819.0400
3376.0000;7804.4810
3377.0000;7816.1780
3378.0000;7835.4470
3379.0000;7846.3080
3380.0000;7839.6890
3381.0000;7817.0410
3382.0000;7806.5830
3383.0000;7817.0350
3384.0000;7843.8500
3385.0000;7864.8470
3386.0000;7856.3330
3387.0000;7829.8130
3388.0000;7802.9370
3389.0000;7826.1670
3390.0000;7865.9150
3391.0000;7818.7430
3392.0000;7768.2420
3393.0000;7793.0660
3394.0000;7815.1460
3395.0000;7811.0000
3396.0000;7819.6470
3397.0000;7833.4030
3398.0000;7837.2910
3399.0000;7831.5410
3400.0000;7820.6130
3401.0000;7796.2930
3402.0000;7769.9200
3403.0000;7770.0860
3404.0000;7790.2230
3405.0000;7799.5090
3406.0000;7797.1790
3407.0000;7782.6810
3408.0000;7776.4440
3409.0000;7784.3590
3410.0000;7797.4060
3411.0000;7810.3900
3412.0000;7817.4510
3413.0000;7819.6330
3414.0000;7818.1060
3415.0000;7809.8260
3416.0000;7795.1770
3417.0000;7770.7240
3418.0000;7761.7290
3419.0000;7785.9510
3420.0000;7819.0310
3421.0000;7840.0400
3422.0000;7836.6350
3423.0000;7822.4910
3424.0000;7844.1960
3425.0000;7866.3040
3426.0000;7861.6750
3427.0000;7862.7830
3428.0000;7869.0720
3429.0000;7845.2740
3430.0000;7814.2580
3431.0000;7811.4470
3432.0000;7826.1640
3433.0000;7846.7840
3434.0000;7862.9130
3435.0000;7873.2120
3436.0000;7901.0990
3437.0000;7915.9500
3438.0000;7896.3920
3439.0000;7872.9070
3440.0000;7861.3510
3441.0000;7846.2790
3442.0000;7839.3400
3443.0000;7850.0220
3444.0000;7865.6670
3445.0000;7871.3420
3446.0000;7866.5630
3447.0000;7860.7240
3448.0000;7888.8840
3449.0000;7918.8790
3450.0000;7911.2960
3451.0000;7887.7180
3452.0000;7866.0440
3453.0000;7854.4730
3454.0000;7857.4000
3455.0000;7860.8880
3456.0000;7872.5020
3457.0000;7890.6550
3458.0000;7906.8130
3459.0000;7912.0420
3460.0000;7898.3940
3461.0000;7891.9300
3462.0000;7931.4310
3463.0000;7951.6820
3464.0000;7925.2100
3465.0000;7897.2500
3466.0000;7876.0000
3467.0000;7848.0780
3468.0000;7842.6440
3469.0000;7869.3370
3470.0000;7904.3250
3471.0000;7927.4800
3472.0000;7923.6590
3473.0000;7900.6850
3474.0000;7883.7970
3475.0000;7888.4700
3476.0000;7917.9160
3477.0000;7937.6280
3478.0000;7943.8910
3479.0000;7954.6000
3480.0000;7952.2230
3481.0000;7933.9750
3482.0000;7927.2850
3483.0000;7933.0530
3484.0000;7922.2830
3485.0000;7918.4310
3486.0000;7942.1780
3487.0000;7941.1140
3488.0000;7906.6510
3489.0000;7888.8940
3490.0000;7893.0630
3491.0000;7906.5350
3492.0000;7921.3160
3493.0000;7928.8950
3494.0000;7945.3670
3495.0000;7958.4000
3496.0000;7945.3270
3497.0000;7935.5290
3498.0000;7952.8840
3499.0000;7948.9040
3500.0000;7925.4930
3501.0000;7934.2640
3502.0000;7944.6680
3503.0000;7921.3720
3504.0000;7899.0510
3505.0000;7895.6360
3506.0000;7907.1090
3507.0000;7926.1260
3508.0000;7933.8890
3509.0000;7942.0400
3510.0000;7953.9240
3511.0000;7958.2830
3512.0000;7957.0970
3513.0000;7966.0630
3514.0000;7972.3110
3515.0000;7968.7050
3516.0000;7963.5280
3517.0000;7954.6390
3518.0000;7923.4580
3519.0000;7916.5530
3520.0000;7967.9600
3521.0000;7981.4750
3522.0000;7949.0830
3523.0000;7981.4480
3524.0000;8017.9750
3525.0000;7982.4460
3526.0000;7932.7140
3527.0000;7904.9850
3528.0000;7917.0700
3529.0000;7946.3930
3530.0000;7932.1830
3531.0000;7941.7980
3532.0000;7990.3410
3533.0000;7980.7030
3534.0000;7939.9690
3535.0000;7965.1060
3536.0000;7999.4680
3537.0000;8005.4020
3538.0000;7998.2280
3539.0000;7983.6000
3540.0000;7978.2960
3541.0000;7980.3440
3542.0000;7985.9320
3543.0000;7983.2170
3544.0000;7972.1250
3545.0000;7962.8280
3546.0000;7960.8460
3547.0000;7968.2900
3548.0000;7966.1250
3549.0000;7955.1930
3550.0000;7961.4800
3551.0000;7961.8520
3552.0000;7933.2540
3553.0000;7915.8640
3554.0000;7919.9030
3555.0000;7914.8030
3556.0000;7910.8460
3557.0000;7917.2880
3558.0000;7911.0040
3559.0000;7894.4670
3560.0000;7914.0780
3561.0000;7945.5140
3562.0000;7949.8720
3563.0000;7945.8650
3564.0000;7939.9460
3565.0000;7923.2660
3566.0000;7909.5850
3567.0000;7915.6270
3568.0000;7926.8670
3569.0000;7934.4770
3570.0000;7947.4600
3571.0000;7944.8520
3572.0000;7902.0510
3573.0000;7884.1920
3574.0000;7917.5360
3575.0000;7924.4830
3576.0000;7908.9380
3577.0000;7898.0330
3578.0000;7895.5530
3579.0000;7904.3930
3580.0000;7915.0890
3581.0000;7916.4230
3582.0000;7893.9930
3583.0000;7898.5030
3584.0000;7945.2410
3585.0000;7955.5460
3586.0000;7932.4640
3587.0000;7916.3910
3588.0000;7915.5680
3589.0000;7932.9090
3590.0000;7935.8660
3591.0000;7928.8210
3592.0000;7930.2850
3593.0000;7928.9710
3594.0000;7925.3490
3595.0000;7947.3540
3596.0000;7973.0420
3597.0000;7960.1580
3598.0000;7967.9580
3599.0000;8012.0570
3600.0000;8026.0660
3601.0000;8015.2350
3602.0000;8013.7800
3603.0000;8022.6490
3604.0000;8036.9720
3605.0000;8017.6230
3606.0000;7996.2810
3607.0000;8026.5460
3608.0000;8045.0290
3609.0000;8028.6850
3610.0000;8020.8070
3611.0000;8015.0970
3612.0000;8003.2910
3613.0000;7977.9170
3614.0000;7954.9950
3615.0000;7982.3730
3616.0000;8025.9320
3617.0000;8035.2540
3618.0000;8026.7900
3619.0000;8009.1280
3620.0000;7998.2790
3621.0000;7998.8480
3622.0000;8009.3550
3623.0000;8005.9630
3624.0000;7991.6960
3625.0000;7995.6030
3626.0000;8018.1960
3627.0000;8052.5750
3628.0000;8083.8450
3629.0000;8097.4000
3630.0000;8094.5660
3631.0000;8080.8210
3632.0000;8072.6520
3633.0000;8092.0170
3634.0000;8116.9070
3635.0000;8096.9520
3636.0000;8075.3090
3637.0000;8077.7030
3638.0000;8068.1660
3639.0000;8063.5450
3640.0000;8090.5680
3641.0000;8112.6140
3642.0000;8109.9900
3643.0000;8097.3220
3644.0000;8074.1510
3645.0000;8046.8080
3646.0000;8024.7390
3647.0000;8017.2290
3648.0000;8019.0610
3649.0000;8026.6940
3650.0000;8028.4900
3651.0000;8030.6470
3652.0000;8029.2440
3653.0000;8015.0580
3654.0000;7996.2230
3655.0000;7983.1770
3656.0000;7980.9110
3657.0000;7986.2990
3658.0000;7976.5880
3659.0000;7997.2250
3660.0000;8054.8640
3661.0000;8072.6450
3662.0000;8050.6190
3663.0000;8028.3380
3664.0000;8015.2750
3665.0000;8019.1360
3666.0000;8024.7650
3667.0000;8024.0100
3668.0000;8008.3940
3669.0000;8005.6110
3670.0000;8018.0900
3671.0000;8022.1620
3672.0000;8013.5420
3673.0000;7994.1670
3674.0000;7995.8960
3675.0000;8009.8010
3676.0000;7997.6170
3677.0000;7993.3080
3678.0000;8009.2270
3679.0000;8013.6230
3680.0000;8011.1980
3681.0000;8014.9040
3682.0000;8025.2360
3683.0000;8038.2670
3684.0000;8043.8560
3685.0000;8040.9560
3686.0000;8033.9070
3687.0000;8023.0850
3688.0000;8016.5180
3689.0000;8022.8540
3690.0000;8031.8770
3691.0000;8034.6510
3692.0000;8039.0600
3693.0000;8044.4530
3694.0000;8050.8150
3695.0000;8049.9730
3696.0000;8042.9800
3697.0000;8043.9720
3698.0000;8052.2710
3699.0000;8063.0140
3700.0000;8062.5080
3701.0000;8056.9130
3702.0000;8072.6880
3703.0000;8077.5090
3704.0000;8062.0890
3705.0000;8083.2370
3706.0000;8110.2320
3707.0000;8093.6570
3708.0000;8075.6090
3709.0000;8070.9350
3710.0000;8066.9780
3711.0000;8070.0340
3712.0000;8080.4930
3713.0000;8105.0190
3714.0000;8124.0630
3715.0000;8108.3190
3716.0000;8111.3390
3717.0000;8141.8550
3718.0000;8109.9040
3719.0000;8065.0200
3720.0000;8072.7200
3721.0000;8093.6380
3722.0000;8101.9880
3723.0000;8063.0810
3724.0000;8029.9800
3725.0000;8037.4730
3726.0000;8045.3040
3727.0000;8049.6170
3728.0000;8046.3620
3729.0000;8047.5820
3730.0000;8052.9290
3731.0000;8047.4470
3732.0000;8042.3590
3733.0000;8047.9950
3734.0000;8069.8490
3735.0000;8086.2780
3736.0000;8067.1160
3737.0000;8038.4280
3738.0000;8022.7430
3739.0000;8036.0510
3740.0000;8048.2570
3741.0000;8029.7890
3742.0000;8023.9230
3743.0000;8035.9640
3744.0000;8054.6400
3745.0000;8057.3460
3746.0000;8039.1200
3747.0000;8032.0970
3748.0000;8035.7500
3749.0000;8044.8650
3750.0000;8057.4800
3751.0000;8067.9850
3752.0000;8075.5570
3753.0000;8050.5830
3754.0000;8005.2920
3755.0000;8023.1300
3756.0000;8048.3580
3757.0000;8016.4900
3758.0000;8008.2600
3759.0000;8023.1310
3760.0000;8015.3450
3761.0000;8037.7070
3762.0000;8091.7180
3763.0000;8106.4330
3764.0000;8108.0380
3765.0000;8132.5090
3766.0000;8113.7680
3767.0000;8080.3980
3768.0000;8114.3600
3769.0000;8141.3790
3770.0000;8133.3810
3771.0000;8147.5720
3772.0000;8152.2170
3773.0000;8129.0970
3774.0000;8157.9440
3775.0000;8212.4490
3776.0000;8222.0880
3777.0000;8219.1810
3778.0000;8216.2900
3779.0000;8210.5690
3780.0000;8208.4550
3781.0000;8214.2430
3782.0000;8220.1680
3783.0000;8217.4830
3784.0000;8198.4740
3785.0000;8204.6800
3786.0000;8227.5550
3787.0000;8194.2860
3788.0000;8174.0220
3789.0000;8203.5780
3790.0000;8206.0520
3791.0000;8197.3270
3792.0000;8207.3820
3793.0000;8226.3320
3794.0000;8240.5790
3795.0000;8233.1360
3796.0000;8219.6490
3797.0000;8212.4180
3798.0000;8204.8100
3799.0000;8199.0260
3800.0000;8193.8600
3801.0000;8176.8080
3802.0000;8146.3350
3803.0000;8101.9820
3804.0000;8101.2900
3805.0000;8148.0770
3806.0000;8172.9700
3807.0000;8178.9740
3808.0000;8170.7850
3809.0000;8159.6350
3810.0000;8158.8660
3811.0000;8179.4950
3812.0000;8182.6910
3813.0000;8171.8230
3814.0000;8184.7760
3815.0000;8176.9840
3816.0000;8141.4880
3817.0000;8126.5830
3818.0000;8118.5320
3819.0000;8103.8400
3820.0000;8101.3650
3821.0000;8102.0970
3822.0000;8086.5620
3823.0000;8085.5870
3824.0000;8100.1960
3825.0000;8107.2930
3826.0000;8100.6270
3827.0000;8081.9910
3828.0000;8070.7880
3829.0000;8066.0130
3830.0000;8063.8100
3831.0000;8069.1640
3832.0000;8087.6490
3833.0000;8121.6630
3834.0000;8128.5220
3835.0000;8102.2400
3836.0000;8072.6490
3837.0000;8077.7880
3838.0000;8118.3750
3839.0000;8109.7670
3840.0000;8091.8830
3841.0000;8103.7910
3842.0000;8100.0770
3843.0000;8089.2740
3844.0000;8091.0570
3845.0000;8098.0660
3846.0000;8096.6980
3847.0000;8061.3980
3848.0000;8060.6480
3849.0000;8105.7400
3850.0000;8111.1460
3851.0000;8104.4050
3852.0000;8110.5270
3853.0000;8120.1760
3854.0000;8143.1710
3855.0000;8183.1140
3856.0000;8178.6480
3857.0000;8146.1670
3858.0000;8153.8440
3859.0000;8160.2030
3860.0000;8158.6000
3861.0000;8174.5190
3862.0000;8176.0780
3863.0000;8155.2760
3864.0000;8157.6170
3865.0000;8181.1360
3866.0000;8210.7800
3867.0000;8212.3480
3868.0000;8205.1030
3869.0000;8228.9070
3870.0000;8220.5150
3871.0000;8180.9120
3872.0000;8150.1720
3873.0000;8135.2700
3874.0000;8138.5170
3875.0000;8139.4820
3876.0000;8142.2000
3877.0000;8144.6080
3878.0000;8143.6430
3879.0000;8150.0530
3880.0000;8166.9440
3881.0000;8146.7230
3882.0000;8124.9500
3883.0000;8154.4570
3884.0000;8174.7030
3885.0000;8175.7100
3886.0000;8175.9540
3887.0000;8162.8150
3888.0000;8146.0630
3889.0000;8151.6180
3890.0000;8155.5460
3891.0000;8150.0380
3892.0000;8168.3080
3893.0000;8172.1520
3894.0000;8142.3870
3895.0000;8139.4080
3896.0000;8144.5390
3897.0000;8129.9970
3898.0000;8112.9200
3899.0000;8099.8680
3900.0000;8093.0020
3901.0000;8094.6720
3902.0000;8101.9500
3903.0000;8105.7180
3904.0000;8095.8170
3905.0000;8081.8140
3906.0000;8100.3860
3907.0000;8107.1650
3908.0000;8088.1310
3909.0000;8094.2920
3910.0000;8096.0340
3911.0000;8076.7250
3912.0000;8061.9460
3913.0000;8062.0760
3914.0000;8079.4830
3915.0000;8097.9490
3916.0000;8109.7200
3917.0000;8113.5210
3918.0000;8138.2910
3919.0000;8172.7180
3920.0000;8188.3880
3921.0000;8174.2360
3922.0000;8146.6290
3923.0000;8148.7680
3924.0000;8165.9830
3925.0000;8180.4890
3926.0000;8169.6590
3927.0000;8151.2810
3928.0000;8142.1930
3929.0000;8138.7600
3930.0000;8152.4590
3931.0000;8174.3170
3932.0000;8159.8930
3933.0000;8122.8230
3934.0000;8093.8070
3935.0000;8105.3190
3936.0000;8127.1510
3937.0000;8117.9110
3938.0000;8139.3080
3939.0000;8171.4470
3940.0000;8176.0120
3941.0000;8147.0590
3942.0000;8122.2770
3943.0000;8156.4420
3944.0000;8154.3980
3945.0000;8121.4780
3946.0000;8121.8060
3947.0000;8113.5710
3948.0000;8101.6580
3949.0000;8122.8560
3950.0000;8127.7200
3951.0000;8113.3860
3952.0000;8137.1290
3953.0000;8148.7370
3954.0000;8128.9360
3955.0000;8110.6840
3956.0000;8099.5690
3957.0000;8099.2470
3958.0000;8095.4240
3959.0000;8082.5690
3960.0000;8060.1630
3961.0000;8037.0940
3962.0000;8024.5070
3963.0000;8026.5350
3964.0000;8038.1880
3965.0000;8040.1540
3966.0000;8020.2040
3967.0000;8024.5410
3968.0000;8024.6900
3969.0000;7989.3470
3970.0000;7970.8570
3971.0000;7965.1770
3972.0000;7952.1840
3973.0000;7950.0150
3974.0000;7956.1220
3975.0000;7958.7070
3976.0000;7966.1500
3977.0000;7970.3460
3978.0000;7960.6890
3979.0000;7940.0530
3980.0000;7904.9970
3981.0000;7851.1510
3982.0000;7855.1220
3983.0000;7897.2200
3984.0000;7883.7220
3985.0000;7874.4310
3986.0000;7879.9630
3987.0000;7885.2640
3988.0000;7904.1720
3989.0000;7927.0260
3990.0000;7930.9760
3991.0000;7919.6500
3992.0000;7912.4330
3993.0000;7944.8610
3994.0000;7948.8990
3995.0000;7919.3050
3996.0000;7919.2450
3997.0000;7933.7400
3998.0000;7954.2000
3999.0000;7972.7630
4000.0000;7985.2280
4001.0000;7996.1410
4002.0000;8031.2150
4003.0000;8033.9680
4004.0000;7998.6460
4005.0000;7981.2780
4006.0000;8005.8780
4007.0000;8050.4360
4008.0000;8024.7150
4009.0000;8019.3850
4010.0000;8051.2930
4011.0000;8034.4700
4012.0000;8013.3510
4013.0000;8011.8410
4014.0000;8020.6200
4015.0000;8019.3870
4016.0000;8006.7530
4017.0000;8016.6910
4018.0000;8016.1720
4019.0000;8000.5670
4020.0000;8004.6070
4021.0000;8016.4060
4022.0000;8019.9980
4023.0000;7997.7050
4024.0000;7969.0950
4025.0000;7954.5230
4026.0000;7959.7240
4027.0000;7964.9880
4028.0000;7960.5120
4029.0000;7955.8250
4030.0000;7955.6540
4031.0000;7961.4310
4032.0000;7969.6040
4033.0000;7968.5890
4034.0000;7948.1660
4035.0000;7902.5000
4036.0000;7877.0150
4037.0000;7879.8070
4038.0000;7870.1730
4039.0000;7871.2310
4040.0000;7877.5060
4041.0000;7866.4520
4042.0000;7861.5040
4043.0000;7858.3950
4044.0000;7834.0060
4045.0000;7862.8600
4046.0000;7915.2890
4047.0000;7902.6760
4048.0000;7915.2350
4049.0000;7936.3490
4050.0000;7912.1850
4051.0000;7905.3370
4052.0000;7907.7940
4053.0000;7887.1800
4054.0000;7887.1260
4055.0000;7905.4450
4056.0000;7920.9820
4057.0000;7934.3540
4058.0000;7946.1210
4059.0000;7956.4590
4060.0000;7935.1760
4061.0000;7913.5660
4062.0000;7925.5910
4063.0000;7931.2200
4064.0000;7941.7920
4065.0000;7962.5020
4066.0000;7975.6620
4067.0000;7985.5890
4068.0000;7989.6550
4069.0000;7944.1590
4070.0000;7918.5400
4071.0000;7943.1850
4072.0000;7930.0450
4073.0000;7903.8400
4074.0000;7887.1880
4075.0000;7888.9770
4076.0000;7905.8200
4077.0000;7919.7580
4078.0000;7908.9390
4079.0000;7900.2300
4080.0000;7897.9020
4081.0000;7883.1840
4082.0000;7846.8880
4083.0000;7809.9090
4084.0000;7804.1130
4085.0000;7788.0630
4086.0000;7773.5550
4087.0000;7783.6240
4088.0000;7793.1350
4089.0000;7781.7260
4090.0000;7746.0450
4091.0000;7761.8790
4092.0000;7780.7260
4093.0000;7756.5160
4094.0000;7784.3210
4095.0000;7808.0570
4096.0000;7783.7410
4097.0000;7745.6920
4098.0000;7747.9130
4099.0000;7796.9110
4100.0000;7805.3030
4101.0000;7796.8690
4102.0000;7783.5560
4103.0000;7765.6360
4104.0000;7751.4920
4105.0000;7733.3130
4106.0000;7688.8870
4107.0000;7660.2100
4108.0000;7653.6930
4109.0000;7648.1280
4110.0000;7615.5430
4111.0000;7560.9680
4112.0000;7508.1470
4113.0000;7467.4130
4114.0000;7422.5240
4115.0000;7357.2940
4116.0000;7279.9580
4117.0000;7212.3240
4118.0000;7157.6000
4119.0000;7074.0400
4120.0000;6998.4280
4121.0000;6950.6920
4122.0000;6926.9300
4123.0000;6859.4050
4124.0000;6762.1710
4125.0000;6703.6270
4126.0000;6649.7250
4127.0000;6583.3620
4128.0000;6490.0850
4129.0000;6432.4510
4130.0000;6386.1920
4131.0000;6310.4290
4132.0000;6249.0000
4133.0000;6186.3900
4134.0000;6107.4120
4135.0000;6015.0060
4136.0000;5916.8250
4137.0000;5817.2720
4138.0000;5697.0580
4139.0000;5622.2720
4140.0000;5578.2150
4141.0000;5482.6890
4142.0000;5365.8420
4143.0000;5250.4880
4144.0000;5148.9860
4145.0000;5045.0120
4146.0000;4978.9590
4147.0000;4952.4420
4148.0000;4888.3720
4149.0000;4796.7570
4150.0000;4701.2710
4151.0000;4622.6780
4152.0000;4564.7290
4153.0000;4524.9480
4154.0000;4482.3980
4155.0000;4420.2460
4156.0000;4349.9490
4157.0000;4292.2440
4158.0000;4236.8000
4159.0000;4163.3370
4160.0000;4066.7790
4161.0000;4008.2240
4162.0000;3983.1200
4163.0000;3965.0590
4164.0000;3920.6150
4165.0000;3855.1490
4166.0000;3793.5620
4167.0000;3758.1080
4168.0000;3733.5080
4169.0000;3714.3630
4170.0000;3693.5400
4171.0000;3681.4320
4172.0000;3677.4740
4173.0000;3668.5140
4174.0000;3626.8730
4175.0000;3599.9490
4176.0000;3606.3020
4177.0000;3613.7100
4178.0000;3584.7500
4179.0000;3539.4830
4180.0000;3527.3640
4181.0000;3511.0390
4182.0000;3496.5190
4183.0000;3490.2820
4184.0000;3491.7910
4185.0000;3488.1220
4186.0000;3474.2020
4187.0000;3462.2380
4188.0000;3469.0230
4189.0000;3488.8360
4190.0000;3498.4610
4191.0000;3484.8460
4192.0000;3479.3800
4193.0000;3508.3770
4194.0000;3512.9350
4195.0000;3499.7500
4196.0000;3481.8230
4197.0000;3466.1050
4198.0000;3457.2080
4199.0000;3453.3880
4200.0000;3446.2360
4201.0000;3450.9310
4202.0000;3462.8960
4203.0000;3469.4410
4204.0000;3460.3470
4205.0000;3459.0420
4206.0000;3470.2670
4207.0000;3460.9970
4208.0000;3464.4900
4209.0000;3475.1670
4210.0000;3467.9870
4211.0000;3449.5730
4212.0000;3442.5700
4213.0000;3457.8810
4214.0000;3460.2440
4215.0000;3453.8280
4216.0000;3445.1040
4217.0000;3441.3670
4218.0000;3419.1160
4219.0000;3408.2490
4220.0000;3442.2640
4221.0000;3451.5910
4222.0000;3448.7750
4223.0000;3450.9770
4224.0000;3456.6020
4225.0000;3440.6770
4226.0000;3417.0760
4227.0000;3423.2070
4228.0000;3409.6810
4229.0000;3398.0550
4230.0000;3410.4980
4231.0000;3407.8700
4232.0000;3401.4130
4233.0000;3401.5870
4234.0000;3415.7330
4235.0000;3401.2150
4236.0000;3042.0480
4237.0000;2154.1860
4238.0000;1136.3120
