Raman Shift ; Dark Subtracted #1
-2.0000;3427.0080
-1.0000;3190.4570
0.0000;2830.1840
1.0000;2371.0740
2.0000;1850.7800
3.0000;1333.7210
4.0000;903.0916
5.0000;543.1505
6.0000;304.2596
7.0000;224.7312
8.0000;170.5860
9.0000;140.6099
10.0000;164.1961
11.0000;161.7146
12.0000;102.7282
13.0000;41.4581
14.0000;-2.5540
15.0000;-15.3131
16.0000;-4.9000
17.0000;5.1583
18.0000;3.9983
19.0000;3.2917
20.0000;3.0643
21.0000;3.4370
22.0000;4.2459
23.0000;4.8893
24.0000;5.1133
25.0000;4.8375
26.0000;3.9103
27.0000;1.8006
28.0000;-0.3923
29.0000;-1.4312
30.0000;-0.4240
31.0000;2.1906
32.0000;5.1838
33.0000;8.0227
34.0000;10.1365
35.0000;11.0200
36.0000;10.3978
37.0000;8.3241
38.0000;6.0560
39.0000;4.6135
40.0000;4.0582
41.0000;4.4451
42.0000;6.1888
43.0000;8.6897
44.0000;10.3466
45.0000;9.1232
46.0000;6.1987
47.0000;4.0019
48.0000;5.4272
49.0000;9.0463
50.0000;12.1415
51.0000;11.8665
52.0000;9.1273
53.0000;6.2583
54.0000;4.8464
55.0000;5.2160
56.0000;7.6111
57.0000;11.8599
58.0000;18.0818
59.0000;25.5163
60.0000;33.8322
61.0000;41.7695
62.0000;49.2906
63.0000;57.0914
64.0000;63.3640
65.0000;70.6619
66.0000;81.5182
67.0000;94.5981
68.0000;111.2622
69.0000;134.8276
70.0000;161.7155
71.0000;189.4780
72.0000;219.7419
73.0000;246.5955
74.0000;270.7426
75.0000;299.3547
76.0000;324.5379
77.0000;349.0156
78.0000;382.3331
79.0000;417.7073
80.0000;451.3054
81.0000;486.4917
82.0000;516.2726
83.0000;544.9059
84.0000;583.3990
85.0000;625.3922
86.0000;666.5928
87.0000;712.3657
88.0000;754.5106
89.0000;794.6708
90.0000;843.3262
91.0000;892.7715
92.0000;938.0054
93.0000;986.2174
94.0000;1028.4860
95.0000;1069.0410
96.0000;1123.9420
97.0000;1186.3360
98.0000;1245.6530
99.0000;1306.9380
100.0000;1360.7220
101.0000;1403.5070
102.0000;1454.9930
103.0000;1506.7060
104.0000;1552.8810
105.0000;1601.2530
106.0000;1644.7100
107.0000;1684.2810
108.0000;1740.0710
109.0000;1802.5990
110.0000;1860.5110
111.0000;1917.6240
112.0000;1964.8880
113.0000;1999.9060
114.0000;2042.5630
115.0000;2086.9350
116.0000;2128.2140
117.0000;2176.6990
118.0000;2227.4390
119.0000;2271.7750
120.0000;2312.8790
121.0000;2344.1530
122.0000;2367.0230
123.0000;2396.5310
124.0000;2429.7960
125.0000;2461.7710
126.0000;2497.6660
127.0000;2533.5450
128.0000;2566.1220
129.0000;2601.5610
130.0000;2635.6230
131.0000;2662.5930
132.0000;2685.9000
133.0000;2701.1690
134.0000;2711.9370
135.0000;2732.7810
136.0000;2763.0090
137.0000;2791.7070
138.0000;2812.5420
139.0000;2820.9390
140.0000;2824.6830
141.0000;2840.1810
142.0000;2868.5760
143.0000;2896.2730
144.0000;2919.4800
145.0000;2931.5940
146.0000;2937.1790
147.0000;2947.1840
148.0000;2959.6820
149.0000;2969.3290
150.0000;2975.2260
151.0000;2975.4650
152.0000;2973.6750
153.0000;2976.6550
154.0000;2984.9520
155.0000;2994.2590
156.0000;3003.3820
157.0000;3010.2070
158.0000;3014.9560
159.0000;3018.9170
160.0000;3021.0270
161.0000;3021.7520
162.0000;3023.9640
163.0000;3027.0570
164.0000;3030.0200
165.0000;3031.7220
166.0000;3032.0270
167.0000;3034.2070
168.0000;3042.7020
169.0000;3056.4850
170.0000;3071.6480
171.0000;3083.3180
172.0000;3090.1020
173.0000;3096.1290
174.0000;3110.4160
175.0000;3129.6690
176.0000;3145.5420
177.0000;3155.5340
178.0000;3155.6420
179.0000;3150.0400
180.0000;3144.9050
181.0000;3139.4080
182.0000;3136.6790
183.0000;3139.5510
184.0000;3149.0180
185.0000;3162.4080
186.0000;3179.1490
187.0000;3196.1160
188.0000;3211.5660
189.0000;3226.0300
190.0000;3234.2870
191.0000;3236.5420
192.0000;3234.3920
193.0000;3226.6230
194.0000;3219.1090
195.0000;3219.7500
196.0000;3226.9780
197.0000;3235.5370
198.0000;3240.8470
199.0000;3243.1720
200.0000;3243.3070
201.0000;3241.8840
202.0000;3238.8830
203.0000;3237.5810
204.0000;3240.7570
205.0000;3247.8740
206.0000;3256.7970
207.0000;3266.8830
208.0000;3276.2720
209.0000;3282.6580
210.0000;3285.1790
211.0000;3282.9760
212.0000;3280.2410
213.0000;3280.5130
214.0000;3282.8640
215.0000;3288.3000
216.0000;3298.2010
217.0000;3310.2910
218.0000;3321.4550
219.0000;3330.8090
220.0000;3336.8030
221.0000;3342.4740
222.0000;3350.1440
223.0000;3357.4800
224.0000;3366.2180
225.0000;3379.3500
226.0000;3390.7900
227.0000;3398.8660
228.0000;3400.0420
229.0000;3397.5280
230.0000;3400.0080
231.0000;3412.9230
232.0000;3429.6770
233.0000;3444.6000
234.0000;3453.9760
235.0000;3458.6240
236.0000;3463.3380
237.0000;3470.4890
238.0000;3475.3200
239.0000;3478.0630
240.0000;3478.0750
241.0000;3475.5060
242.0000;3472.6490
243.0000;3469.6660
244.0000;3468.6160
245.0000;3472.0430
246.0000;3481.0380
247.0000;3492.3160
248.0000;3502.7840
249.0000;3510.4840
250.0000;3514.9590
251.0000;3517.3060
252.0000;3516.1540
253.0000;3515.1460
254.0000;3520.7690
255.0000;3532.9060
256.0000;3545.3660
257.0000;3552.4230
258.0000;3552.7550
259.0000;3552.8660
260.0000;3561.3870
261.0000;3575.5280
262.0000;3590.2410
263.0000;3601.4760
264.0000;3607.0050
265.0000;3609.8230
266.0000;3615.8250
267.0000;3621.3160
268.0000;3624.7420
269.0000;3625.6630
270.0000;3623.7990
271.0000;3622.8650
272.0000;3626.7140
273.0000;3633.7900
274.0000;3642.2010
275.0000;3650.1750
276.0000;3657.6210
277.0000;3666.0000
278.0000;3678.5360
279.0000;3690.5770
280.0000;3701.1340
281.0000;3710.5960
282.0000;3716.1040
283.0000;3720.6380
284.0000;3727.3430
285.0000;3731.8790
286.0000;3734.6170
287.0000;3735.2290
288.0000;3734.2070
289.0000;3734.8020
290.0000;3738.5180
291.0000;3744.4410
292.0000;3752.6150
293.0000;3762.4570
294.0000;3773.5030
295.0000;3786.6430
296.0000;3800.8880
297.0000;3813.7850
298.0000;3826.9240
299.0000;3838.4360
300.0000;3845.7110
301.0000;3851.1840
302.0000;3852.6450
303.0000;3850.9950
304.0000;3850.1610
305.0000;3849.7260
306.0000;3849.7120
307.0000;3851.0860
308.0000;3853.9270
309.0000;3857.4930
310.0000;3861.9900
311.0000;3866.4230
312.0000;3869.5940
313.0000;3870.1580
314.0000;3868.3250
315.0000;3867.8080
316.0000;3871.9080
317.0000;3879.4070
318.0000;3888.5470
319.0000;3897.9020
320.0000;3906.7250
321.0000;3916.7380
322.0000;3931.8630
323.0000;3945.6690
324.0000;3956.0780
325.0000;3960.6560
326.0000;3959.7410
327.0000;3959.8300
328.0000;3965.3220
329.0000;3971.9600
330.0000;3979.2060
331.0000;3986.3820
332.0000;3992.7530
333.0000;3998.3090
334.0000;4002.0150
335.0000;4006.5800
336.0000;4018.5820
337.0000;4038.2980
338.0000;4056.9320
339.0000;4067.4170
340.0000;4065.6330
341.0000;4060.9520
342.0000;4066.3530
343.0000;4081.7260
344.0000;4098.6410
345.0000;4113.9740
346.0000;4124.8100
347.0000;4130.1320
348.0000;4131.4150
349.0000;4126.9160
350.0000;4123.4790
351.0000;4129.2500
352.0000;4140.9550
353.0000;4152.4310
354.0000;4160.0840
355.0000;4163.7810
356.0000;4166.0690
357.0000;4171.3140
358.0000;4174.8350
359.0000;4176.4380
360.0000;4175.3540
361.0000;4172.6320
362.0000;4171.4470
363.0000;4173.4240
364.0000;4177.8380
365.0000;4184.4880
366.0000;4192.7390
367.0000;4201.3160
368.0000;4208.6930
369.0000;4213.6660
370.0000;4216.7240
371.0000;4220.3210
372.0000;4224.0640
373.0000;4227.8550
374.0000;4234.5010
375.0000;4242.4700
376.0000;4249.6080
377.0000;4252.9420
378.0000;4252.7100
379.0000;4255.1780
380.0000;4269.4140
381.0000;4289.7080
382.0000;4308.0280
383.0000;4318.7880
384.0000;4320.3060
385.0000;4319.5000
386.0000;4323.6320
387.0000;4328.1100
388.0000;4335.0770
389.0000;4347.3910
390.0000;4359.3670
391.0000;4365.7880
392.0000;4362.9040
393.0000;4355.1000
394.0000;4350.1840
395.0000;4351.5440
396.0000;4358.3570
397.0000;4370.5200
398.0000;4388.7220
399.0000;4406.9290
400.0000;4419.7360
401.0000;4424.3490
402.0000;4425.2740
403.0000;4431.6730
404.0000;4441.2300
405.0000;4449.6510
406.0000;4455.3220
407.0000;4457.3400
408.0000;4460.7030
409.0000;4472.8370
410.0000;4487.8750
411.0000;4500.9170
412.0000;4507.8600
413.0000;4508.3330
414.0000;4507.8870
415.0000;4511.2520
416.0000;4515.3180
417.0000;4520.8080
418.0000;4528.0220
419.0000;4535.4900
420.0000;4542.5660
421.0000;4548.0730
422.0000;4552.3500
423.0000;4557.4460
424.0000;4562.7520
425.0000;4569.2240
426.0000;4580.2670
427.0000;4594.6470
428.0000;4607.3810
429.0000;4618.0060
430.0000;4622.8880
431.0000;4623.1940
432.0000;4622.0370
433.0000;4618.0330
434.0000;4614.9710
435.0000;4617.4130
436.0000;4623.3680
437.0000;4629.2960
438.0000;4630.6190
439.0000;4631.0800
440.0000;4635.7620
441.0000;4649.8230
442.0000;4665.6460
443.0000;4676.3900
444.0000;4677.9620
445.0000;4674.1460
446.0000;4673.2970
447.0000;4677.5020
448.0000;4683.3620
449.0000;4690.1170
450.0000;4696.7500
451.0000;4703.5990
452.0000;4712.2150
453.0000;4720.8160
454.0000;4728.4150
455.0000;4736.7870
456.0000;4743.2520
457.0000;4748.5540
458.0000;4754.4240
459.0000;4759.2190
460.0000;4765.2870
461.0000;4776.2540
462.0000;4788.0640
463.0000;4799.6270
464.0000;4809.5180
465.0000;4817.6080
466.0000;4828.1620
467.0000;4841.7550
468.0000;4855.9640
469.0000;4873.1260
470.0000;4892.6910
471.0000;4908.5410
472.0000;4918.8930
473.0000;4920.6100
474.0000;4921.9080
475.0000;4936.2950
476.0000;4958.9510
477.0000;4980.4700
478.0000;4996.4460
479.0000;5003.0900
480.0000;5004.5000
481.0000;5008.5850
482.0000;5007.8060
483.0000;5003.3590
484.0000;4994.7190
485.0000;4985.4190
486.0000;4981.2710
487.0000;4986.0520
488.0000;4995.1460
489.0000;5001.8590
490.0000;5003.8870
491.0000;5003.7220
492.0000;5003.1880
493.0000;5002.2460
494.0000;5003.3760
495.0000;5010.1960
496.0000;5021.4860
497.0000;5032.8230
498.0000;5040.9290
499.0000;5044.9010
500.0000;5047.8000
501.0000;5053.0480
502.0000;5058.1360
503.0000;5065.0550
504.0000;5076.0140
505.0000;5086.5710
506.0000;5094.8050
507.0000;5098.7830
508.0000;5099.2990
509.0000;5101.2560
510.0000;5104.9510
511.0000;5107.9400
512.0000;5109.5410
513.0000;5109.2860
514.0000;5109.3990
515.0000;5112.6220
516.0000;5118.1880
517.0000;5124.7580
518.0000;5130.9790
519.0000;5136.3690
520.0000;5141.9460
521.0000;5149.2860
522.0000;5155.8350
523.0000;5161.9840
524.0000;5167.4290
525.0000;5171.9320
526.0000;5179.3650
527.0000;5190.4990
528.0000;5200.1330
529.0000;5204.4000
530.0000;5201.2860
531.0000;5199.4910
532.0000;5210.6500
533.0000;5231.8310
534.0000;5252.5160
535.0000;5262.4170
536.0000;5262.4960
537.0000;5261.7000
538.0000;5269.5660
539.0000;5279.7570
540.0000;5291.9920
541.0000;5306.2470
542.0000;5319.7020
543.0000;5331.9590
544.0000;5342.0560
545.0000;5348.0170
546.0000;5352.2740
547.0000;5353.3210
548.0000;5355.2470
549.0000;5366.5580
550.0000;5384.0320
551.0000;5400.0040
552.0000;5409.1450
553.0000;5410.1270
554.0000;5409.2000
555.0000;5415.5560
556.0000;5421.4240
557.0000;5422.9690
558.0000;5416.3630
559.0000;5407.6060
560.0000;5405.8750
561.0000;5414.8910
562.0000;5429.6600
563.0000;5444.1300
564.0000;5456.2470
565.0000;5464.2730
566.0000;5466.9510
567.0000;5462.7950
568.0000;5458.5720
569.0000;5462.7650
570.0000;5471.8180
571.0000;5479.9900
572.0000;5483.9770
573.0000;5484.2640
574.0000;5483.9090
575.0000;5484.4590
576.0000;5484.7980
577.0000;5485.4830
578.0000;5486.3670
579.0000;5489.4250
580.0000;5497.6070
581.0000;5510.1760
582.0000;5521.2350
583.0000;5524.8000
584.0000;5520.4920
585.0000;5515.4380
586.0000;5516.9440
587.0000;5521.8160
588.0000;5527.6460
589.0000;5531.7430
590.0000;5535.9030
591.0000;5542.2810
592.0000;5552.4750
593.0000;5561.4980
594.0000;5568.1240
595.0000;5570.0040
596.0000;5567.0020
597.0000;5561.0110
598.0000;5551.6930
599.0000;5543.2680
600.0000;5538.3960
601.0000;5538.4410
602.0000;5541.1140
603.0000;5542.5390
604.0000;5546.1200
605.0000;5553.0900
606.0000;5564.1110
607.0000;5575.8250
608.0000;5584.5080
609.0000;5588.0950
610.0000;5588.3690
611.0000;5588.3540
612.0000;5588.4000
613.0000;5594.4260
614.0000;5614.2570
615.0000;5644.1180
616.0000;5674.1100
617.0000;5702.7730
618.0000;5722.4400
619.0000;5736.2830
620.0000;5746.3500
621.0000;5749.6790
622.0000;5757.8340
623.0000;5773.7850
624.0000;5787.9360
625.0000;5797.3730
626.0000;5798.7640
627.0000;5797.9670
628.0000;5802.4810
629.0000;5810.7310
630.0000;5822.4090
631.0000;5841.8830
632.0000;5862.1380
633.0000;5877.9110
634.0000;5886.4600
635.0000;5885.7240
636.0000;5881.2990
637.0000;5874.5810
638.0000;5865.0020
639.0000;5855.6240
640.0000;5848.3110
641.0000;5844.6720
642.0000;5844.2370
643.0000;5848.7300
644.0000;5855.2260
645.0000;5858.9780
646.0000;5862.9420
647.0000;5870.0390
648.0000;5883.7280
649.0000;5896.6410
650.0000;5903.4230
651.0000;5900.9560
652.0000;5892.9790
653.0000;5885.9770
654.0000;5881.1230
655.0000;5880.5730
656.0000;5886.6090
657.0000;5899.0460
658.0000;5912.7000
659.0000;5925.0160
660.0000;5933.0990
661.0000;5936.8920
662.0000;5935.4550
663.0000;5930.7640
664.0000;5930.3390
665.0000;5936.3570
666.0000;5944.6730
667.0000;5953.2590
668.0000;5960.1200
669.0000;5963.4390
670.0000;5960.8440
671.0000;5953.2890
672.0000;5948.0480
673.0000;5951.4970
674.0000;5959.7480
675.0000;5967.8800
676.0000;5973.5870
677.0000;5976.0620
678.0000;5974.5840
679.0000;5968.3600
680.0000;5962.5030
681.0000;5963.2820
682.0000;5970.1700
683.0000;5976.7590
684.0000;5976.5350
685.0000;5972.3950
686.0000;5969.5200
687.0000;5971.1890
688.0000;5975.7860
689.0000;5982.6640
690.0000;5991.7470
691.0000;5997.9260
692.0000;5994.3460
693.0000;5980.9380
694.0000;5972.0670
695.0000;5982.8010
696.0000;6008.6800
697.0000;6035.0300
698.0000;6050.8750
699.0000;6057.7700
700.0000;6063.5580
701.0000;6071.7430
702.0000;6076.8990
703.0000;6080.7670
704.0000;6082.1300
705.0000;6083.6010
706.0000;6088.9720
707.0000;6097.7100
708.0000;6110.0030
709.0000;6130.0190
710.0000;6149.9610
711.0000;6162.8430
712.0000;6161.4970
713.0000;6154.2920
714.0000;6160.0720
715.0000;6184.2760
716.0000;6208.5880
717.0000;6216.8580
718.0000;6207.1720
719.0000;6196.2380
720.0000;6200.8140
721.0000;6216.0130
722.0000;6236.4680
723.0000;6259.9020
724.0000;6279.3200
725.0000;6289.2970
726.0000;6284.8690
727.0000;6271.8170
728.0000;6264.5800
729.0000;6263.7330
730.0000;6264.6680
731.0000;6263.3410
732.0000;6261.7930
733.0000;6261.5290
734.0000;6263.4190
735.0000;6266.7810
736.0000;6269.9110
737.0000;6271.6940
738.0000;6273.1430
739.0000;6275.0990
740.0000;6277.5570
741.0000;6282.9880
742.0000;6295.2290
743.0000;6310.9840
744.0000;6324.0000
745.0000;6330.6080
746.0000;6330.1140
747.0000;6329.5710
748.0000;6331.9730
749.0000;6335.2990
750.0000;6342.5730
751.0000;6353.2620
752.0000;6359.7910
753.0000;6353.3750
754.0000;6336.9540
755.0000;6324.5000
756.0000;6330.3550
757.0000;6346.5410
758.0000;6360.6890
759.0000;6364.3890
760.0000;6363.0990
761.0000;6362.5480
762.0000;6363.1320
763.0000;6364.3070
764.0000;6367.8260
765.0000;6372.6320
766.0000;6377.1000
767.0000;6380.3950
768.0000;6381.6040
769.0000;6381.3560
770.0000;6379.0490
771.0000;6377.7270
772.0000;6381.9270
773.0000;6392.3650
774.0000;6405.1790
775.0000;6416.2590
776.0000;6424.4560
777.0000;6430.8000
778.0000;6439.2220
779.0000;6444.9840
780.0000;6449.8720
781.0000;6453.9410
782.0000;6457.0070
783.0000;6463.2270
784.0000;6471.7750
785.0000;6479.9170
786.0000;6485.8680
787.0000;6488.8200
788.0000;6491.7660
789.0000;6498.2660
790.0000;6505.4550
791.0000;6514.3290
792.0000;6523.8980
793.0000;6533.7000
794.0000;6545.8280
795.0000;6558.5750
796.0000;6567.2980
797.0000;6570.0880
798.0000;6566.9450
799.0000;6567.7230
800.0000;6582.1150
801.0000;6600.0840
802.0000;6614.7660
803.0000;6620.8380
804.0000;6620.8850
805.0000;6621.3900
806.0000;6620.7140
807.0000;6618.0550
808.0000;6613.9030
809.0000;6609.2500
810.0000;6606.9140
811.0000;6607.9300
812.0000;6613.1830
813.0000;6621.4500
814.0000;6632.5860
815.0000;6644.7160
816.0000;6657.1910
817.0000;6667.6320
818.0000;6674.8470
819.0000;6680.3360
820.0000;6681.8170
821.0000;6684.0250
822.0000;6689.2920
823.0000;6694.8850
824.0000;6700.7210
825.0000;6705.5870
826.0000;6709.3150
827.0000;6713.5530
828.0000;6716.1060
829.0000;6716.6690
830.0000;6713.9070
831.0000;6710.7290
832.0000;6712.5480
833.0000;6721.9360
834.0000;6734.6200
835.0000;6746.5800
836.0000;6755.5330
837.0000;6762.7790
838.0000;6771.5350
839.0000;6777.3950
840.0000;6781.0230
841.0000;6783.4540
842.0000;6782.9720
843.0000;6782.4150
844.0000;6782.0340
845.0000;6780.9080
846.0000;6779.2790
847.0000;6777.2150
848.0000;6774.9170
849.0000;6772.0790
850.0000;6769.7950
851.0000;6768.2240
852.0000;6767.2280
853.0000;6769.1280
854.0000;6775.6480
855.0000;6786.0000
856.0000;6796.0520
857.0000;6800.6160
858.0000;6800.7420
859.0000;6803.4530
860.0000;6814.5890
861.0000;6826.3430
862.0000;6833.2900
863.0000;6832.6170
864.0000;6828.7840
865.0000;6828.0880
866.0000;6829.7010
867.0000;6833.1280
868.0000;6838.9400
869.0000;6845.4530
870.0000;6850.1670
871.0000;6850.7260
872.0000;6852.7670
873.0000;6864.9140
874.0000;6885.1690
875.0000;6903.2150
876.0000;6910.5940
877.0000;6909.3210
878.0000;6911.2300
879.0000;6925.1850
880.0000;6940.0360
881.0000;6947.7200
882.0000;6944.9270
883.0000;6942.7090
884.0000;6956.8870
885.0000;6979.7760
886.0000;6996.3010
887.0000;6994.9230
888.0000;6982.8890
889.0000;6974.7890
890.0000;6975.4410
891.0000;6984.7330
892.0000;7003.4490
893.0000;7029.9700
894.0000;7056.9000
895.0000;7081.5070
896.0000;7097.6700
897.0000;7110.2910
898.0000;7119.3370
899.0000;7122.8790
900.0000;7130.6640
901.0000;7139.7480
902.0000;7142.9780
903.0000;7133.7690
904.0000;7117.7610
905.0000;7111.9140
906.0000;7126.4230
907.0000;7149.4470
908.0000;7165.8740
909.0000;7171.3470
910.0000;7174.9780
911.0000;7188.1450
912.0000;7204.9470
913.0000;7219.5160
914.0000;7229.5610
915.0000;7234.6970
916.0000;7241.8320
917.0000;7251.0910
918.0000;7258.4660
919.0000;7263.9140
920.0000;7265.6480
921.0000;7266.2000
922.0000;7267.4130
923.0000;7269.6500
924.0000;7276.7280
925.0000;7289.8170
926.0000;7302.9380
927.0000;7311.8220
928.0000;7314.2660
929.0000;7314.1000
930.0000;7315.5130
931.0000;7317.1720
932.0000;7323.4340
933.0000;7336.1720
934.0000;7347.6960
935.0000;7352.2110
936.0000;7347.2560
937.0000;7338.0050
938.0000;7327.8790
939.0000;7319.2430
940.0000;7317.6200
941.0000;7326.0860
942.0000;7340.6290
943.0000;7353.0060
944.0000;7361.5000
945.0000;7367.7640
946.0000;7373.7410
947.0000;7377.4550
948.0000;7382.8040
949.0000;7390.8440
950.0000;7400.8210
951.0000;7416.3200
952.0000;7434.2850
953.0000;7449.0850
954.0000;7459.0800
955.0000;7460.5480
956.0000;7460.1990
957.0000;7462.2120
958.0000;7462.4870
959.0000;7461.1030
960.0000;7458.1020
961.0000;7456.1890
962.0000;7458.6710
963.0000;7464.1670
964.0000;7469.2530
965.0000;7470.8540
966.0000;7471.5200
967.0000;7474.2540
968.0000;7479.3840
969.0000;7486.4430
970.0000;7498.5020
971.0000;7510.4480
972.0000;7517.1490
973.0000;7512.4920
974.0000;7505.5690
975.0000;7511.2150
976.0000;7531.4960
977.0000;7554.7830
978.0000;7572.0240
979.0000;7580.2850
980.0000;7581.4530
981.0000;7576.3450
982.0000;7566.9980
983.0000;7563.6700
984.0000;7568.4170
985.0000;7576.3090
986.0000;7581.6560
987.0000;7586.8970
988.0000;7597.7930
989.0000;7618.7780
990.0000;7639.1070
991.0000;7648.6270
992.0000;7643.0750
993.0000;7632.7860
994.0000;7631.8670
995.0000;7635.5150
996.0000;7638.4820
997.0000;7636.8510
998.0000;7636.3480
999.0000;7643.0500
1000.0000;7657.4070
1001.0000;7671.1160
1002.0000;7677.1950
1003.0000;7676.7520
1004.0000;7677.8000
1005.0000;7685.1040
1006.0000;7692.2580
1007.0000;7695.0050
1008.0000;7692.3290
1009.0000;7689.3680
1010.0000;7690.1870
1011.0000;7695.0420
1012.0000;7705.8330
1013.0000;7723.8710
1014.0000;7741.2420
1015.0000;7752.4320
1016.0000;7753.7390
1017.0000;7752.4850
1018.0000;7759.1330
1019.0000;7766.3520
1020.0000;7770.0180
1021.0000;7767.2130
1022.0000;7764.1240
1023.0000;7768.6770
1024.0000;7780.2390
1025.0000;7792.8550
1026.0000;7803.9720
1027.0000;7810.7010
1028.0000;7812.6820
1029.0000;7808.5860
1030.0000;7800.6310
1031.0000;7794.4210
1032.0000;7789.8450
1033.0000;7786.3240
1034.0000;7782.9140
1035.0000;7781.3390
1036.0000;7779.7370
1037.0000;7778.0600
1038.0000;7779.1670
1039.0000;7785.0210
1040.0000;7794.2380
1041.0000;7802.1110
1042.0000;7805.0920
1043.0000;7805.1720
1044.0000;7806.9980
1045.0000;7810.7580
1046.0000;7815.1760
1047.0000;7820.0500
1048.0000;7825.0120
1049.0000;7831.7290
1050.0000;7841.0920
1051.0000;7849.7560
1052.0000;7856.7760
1053.0000;7860.6080
1054.0000;7862.6840
1055.0000;7866.6590
1056.0000;7869.8180
1057.0000;7872.3820
1058.0000;7873.4220
1059.0000;7877.3820
1060.0000;7891.1160
1061.0000;7911.8040
1062.0000;7930.7940
1063.0000;7945.8470
1064.0000;7950.0680
1065.0000;7943.1390
1066.0000;7923.2410
1067.0000;7905.3530
1068.0000;7908.7180
1069.0000;7929.0210
1070.0000;7946.6770
1071.0000;7948.2080
1072.0000;7941.6810
1073.0000;7936.1680
1074.0000;7933.1520
1075.0000;7934.4760
1076.0000;7941.3290
1077.0000;7954.6170
1078.0000;7973.4270
1079.0000;7997.2450
1080.0000;8018.5170
1081.0000;8033.4500
1082.0000;8037.4800
1083.0000;8037.3530
1084.0000;8042.3650
1085.0000;8047.0580
1086.0000;8054.5830
1087.0000;8065.2430
1088.0000;8072.4390
1089.0000;8069.5440
1090.0000;8059.3820
1091.0000;8056.6170
1092.0000;8072.6680
1093.0000;8095.8810
1094.0000;8114.1110
1095.0000;8122.5260
1096.0000;8125.0670
1097.0000;8130.4650
1098.0000;8131.0440
1099.0000;8125.0190
1100.0000;8110.0950
1101.0000;8097.4000
1102.0000;8100.4250
1103.0000;8119.7960
1104.0000;8138.7110
1105.0000;8145.4110
1106.0000;8143.5970
1107.0000;8140.0420
1108.0000;8136.0410
1109.0000;8134.2740
1110.0000;8141.7260
1111.0000;8154.3150
1112.0000;8161.0170
1113.0000;8156.3330
1114.0000;8143.5930
1115.0000;8126.9380
1116.0000;8110.1360
1117.0000;8099.5340
1118.0000;8100.2880
1119.0000;8110.8040
1120.0000;8117.5620
1121.0000;8115.8620
1122.0000;8110.9370
1123.0000;8106.1900
1124.0000;8102.5640
1125.0000;8103.2060
1126.0000;8112.7500
1127.0000;8121.6880
1128.0000;8116.8350
1129.0000;8096.7620
1130.0000;8077.0770
1131.0000;8072.3240
1132.0000;8078.0720
1133.0000;8080.2280
1134.0000;8072.2540
1135.0000;8065.4650
1136.0000;8068.5860
1137.0000;8079.7640
1138.0000;8088.6440
1139.0000;8087.1670
1140.0000;8080.5950
1141.0000;8076.0880
1142.0000;8075.4100
1143.0000;8076.9190
1144.0000;8082.5210
1145.0000;8087.3770
1146.0000;8082.4050
1147.0000;8062.8540
1148.0000;8039.9590
1149.0000;8026.7820
1150.0000;8025.0750
1151.0000;8026.5810
1152.0000;8024.3250
1153.0000;8022.4420
1154.0000;8017.4440
1155.0000;8010.2590
1156.0000;8007.6270
1157.0000;8015.7190
1158.0000;8030.8900
1159.0000;8042.2870
1160.0000;8044.6920
1161.0000;8043.4590
1162.0000;8046.2320
1163.0000;8051.1900
1164.0000;8057.4350
1165.0000;8066.0990
1166.0000;8072.0030
1167.0000;8069.1070
1168.0000;8057.1400
1169.0000;8049.4010
1170.0000;8060.3890
1171.0000;8082.3060
1172.0000;8099.9240
1173.0000;8105.7850
1174.0000;8104.8520
1175.0000;8105.9140
1176.0000;8104.5670
1177.0000;8097.5940
1178.0000;8081.6030
1179.0000;8067.9790
1180.0000;8070.8860
1181.0000;8091.7710
1182.0000;8116.1000
1183.0000;8132.1590
1184.0000;8137.6880
1185.0000;8134.5950
1186.0000;8121.2400
1187.0000;8107.2530
1188.0000;8104.0470
1189.0000;8110.9800
1190.0000;8119.8210
1191.0000;8126.2150
1192.0000;8133.4940
1193.0000;8145.2280
1194.0000;8158.6860
1195.0000;8167.1530
1196.0000;8165.9170
1197.0000;8159.2260
1198.0000;8159.4620
1199.0000;8168.7670
1200.0000;8175.1320
1201.0000;8167.5180
1202.0000;8152.4800
1203.0000;8143.5540
1204.0000;8147.3490
1205.0000;8157.0680
1206.0000;8164.5990
1207.0000;8170.5440
1208.0000;8175.6100
1209.0000;8181.1390
1210.0000;8182.0490
1211.0000;8175.6430
1212.0000;8162.0480
1213.0000;8151.0290
1214.0000;8151.1030
1215.0000;8158.2500
1216.0000;8163.0230
1217.0000;8163.1000
1218.0000;8161.4450
1219.0000;8160.3990
1220.0000;8158.7970
1221.0000;8155.2700
1222.0000;8148.6610
1223.0000;8146.1690
1224.0000;8155.8350
1225.0000;8174.3460
1226.0000;8187.9930
1227.0000;8188.2430
1228.0000;8180.5680
1229.0000;8175.6930
1230.0000;8174.4320
1231.0000;8175.2180
1232.0000;8177.3020
1233.0000;8181.2440
1234.0000;8186.3700
1235.0000;8191.8850
1236.0000;8195.2600
1237.0000;8195.2710
1238.0000;8191.5040
1239.0000;8187.0400
1240.0000;8183.2640
1241.0000;8180.5790
1242.0000;8181.3310
1243.0000;8183.4250
1244.0000;8178.5780
1245.0000;8159.4240
1246.0000;8141.5300
1247.0000;8140.9310
1248.0000;8158.9910
1249.0000;8178.2810
1250.0000;8184.5950
1251.0000;8183.7350
1252.0000;8184.7290
1253.0000;8187.4650
1254.0000;8186.2280
1255.0000;8175.4190
1256.0000;8162.4700
1257.0000;8157.5250
1258.0000;8165.1270
1259.0000;8180.0230
1260.0000;8197.9220
1261.0000;8214.4130
1262.0000;8222.8810
1263.0000;8218.3410
1264.0000;8206.7870
1265.0000;8201.0160
1266.0000;8199.9900
1267.0000;8200.5140
1268.0000;8200.4950
1269.0000;8202.6560
1270.0000;8208.0490
1271.0000;8216.1690
1272.0000;8223.0530
1273.0000;8225.9950
1274.0000;8226.4600
1275.0000;8229.6580
1276.0000;8235.7740
1277.0000;8241.1870
1278.0000;8245.5970
1279.0000;8246.9240
1280.0000;8245.0610
1281.0000;8239.7220
1282.0000;8236.6010
1283.0000;8241.5730
1284.0000;8253.1870
1285.0000;8265.5630
1286.0000;8275.9660
1287.0000;8283.9600
1288.0000;8291.9360
1289.0000;8296.2040
1290.0000;8298.4110
1291.0000;8299.1930
1292.0000;8298.8040
1293.0000;8301.4570
1294.0000;8305.9980
1295.0000;8309.6430
1296.0000;8309.8440
1297.0000;8309.4680
1298.0000;8314.6670
1299.0000;8323.7050
1300.0000;8327.7290
1301.0000;8316.4020
1302.0000;8302.7040
1303.0000;8305.5260
1304.0000;8327.6210
1305.0000;8348.6520
1306.0000;8350.7580
1307.0000;8341.0010
1308.0000;8335.0930
1309.0000;8337.1280
1310.0000;8339.8660
1311.0000;8337.9750
1312.0000;8334.3960
1313.0000;8332.5110
1314.0000;8333.8100
1315.0000;8337.8450
1316.0000;8345.1090
1317.0000;8353.0500
1318.0000;8357.2940
1319.0000;8354.1040
1320.0000;8351.3290
1321.0000;8361.0900
1322.0000;8378.2180
1323.0000;8388.4170
1324.0000;8383.9280
1325.0000;8371.9570
1326.0000;8362.4390
1327.0000;8356.7170
1328.0000;8354.0720
1329.0000;8355.1390
1330.0000;8358.8610
1331.0000;8359.9300
1332.0000;8358.6080
1333.0000;8357.8680
1334.0000;8359.7380
1335.0000;8362.4760
1336.0000;8363.4970
1337.0000;8363.0260
1338.0000;8365.2160
1339.0000;8374.6340
1340.0000;8385.4400
1341.0000;8392.9270
1342.0000;8394.0680
1343.0000;8391.2000
1344.0000;8386.7650
1345.0000;8381.6760
1346.0000;8380.8470
1347.0000;8385.9100
1348.0000;8390.2160
1349.0000;8388.9200
1350.0000;8382.5660
1351.0000;8373.5160
1352.0000;8362.5030
1353.0000;8351.3860
1354.0000;8339.5900
1355.0000;8331.3290
1356.0000;8326.7630
1357.0000;8327.2730
1358.0000;8330.9750
1359.0000;8332.6640
1360.0000;8333.6210
1361.0000;8334.1090
1362.0000;8334.1230
1363.0000;8331.9770
1364.0000;8323.7560
1365.0000;8314.8870
1366.0000;8317.2370
1367.0000;8337.2920
1368.0000;8356.5920
1369.0000;8355.8400
1370.0000;8339.6070
1371.0000;8329.8310
1372.0000;8337.4270
1373.0000;8349.9410
1374.0000;8358.8580
1375.0000;8361.8340
1376.0000;8357.0720
1377.0000;8342.2530
1378.0000;8327.7970
1379.0000;8325.8790
1380.0000;8335.5920
1381.0000;8343.2670
1382.0000;8341.5600
1383.0000;8334.9750
1384.0000;8326.1350
1385.0000;8316.7130
1386.0000;8311.7430
1387.0000;8314.2760
1388.0000;8322.5290
1389.0000;8330.9090
1390.0000;8339.3340
1391.0000;8348.7920
1392.0000;8359.2770
1393.0000;8367.7030
1394.0000;8376.7760
1395.0000;8382.3500
1396.0000;8382.4930
1397.0000;8375.7690
1398.0000;8367.0490
1399.0000;8365.0580
1400.0000;8370.0100
1401.0000;8376.4480
1402.0000;8381.0640
1403.0000;8384.6940
1404.0000;8388.5180
1405.0000;8390.8140
1406.0000;8390.4670
1407.0000;8385.8800
1408.0000;8382.6240
1409.0000;8387.0800
1410.0000;8399.5150
1411.0000;8416.6870
1412.0000;8437.9410
1413.0000;8453.5110
1414.0000;8455.9920
1415.0000;8443.9980
1416.0000;8433.2750
1417.0000;8435.1930
1418.0000;8440.2280
1419.0000;8439.9120
1420.0000;8434.6820
1421.0000;8428.2160
1422.0000;8422.0590
1423.0000;8417.2020
1424.0000;8413.1980
1425.0000;8411.9280
1426.0000;8412.7290
1427.0000;8414.6180
1428.0000;8419.1390
1429.0000;8427.4690
1430.0000;8436.7360
1431.0000;8442.3680
1432.0000;8441.4460
1433.0000;8435.9230
1434.0000;8431.8130
1435.0000;8427.6270
1436.0000;8419.4870
1437.0000;8405.7220
1438.0000;8395.2790
1439.0000;8395.8590
1440.0000;8406.2750
1441.0000;8413.5680
1442.0000;8410.3720
1443.0000;8403.6950
1444.0000;8399.5050
1445.0000;8397.5310
1446.0000;8396.9570
1447.0000;8397.8990
1448.0000;8398.7640
1449.0000;8394.9720
1450.0000;8390.3990
1451.0000;8392.5790
1452.0000;8405.1620
1453.0000;8415.6660
1454.0000;8410.3390
1455.0000;8394.6690
1456.0000;8383.4130
1457.0000;8383.4500
1458.0000;8384.6830
1459.0000;8377.0490
1460.0000;8365.6970
1461.0000;8352.2300
1462.0000;8338.7020
1463.0000;8336.9320
1464.0000;8356.6780
1465.0000;8387.9200
1466.0000;8405.7620
1467.0000;8402.1570
1468.0000;8386.9000
1469.0000;8369.8400
1470.0000;8353.8650
1471.0000;8350.5250
1472.0000;8363.4480
1473.0000;8375.2470
1474.0000;8369.9590
1475.0000;8354.5470
1476.0000;8338.6790
1477.0000;8324.6050
1478.0000;8310.7620
1479.0000;8294.8490
1480.0000;8284.7160
1481.0000;8281.0860
1482.0000;8286.5540
1483.0000;8294.9800
1484.0000;8302.0640
1485.0000;8306.0700
1486.0000;8303.2830
1487.0000;8294.6020
1488.0000;8288.7840
1489.0000;8291.6400
1490.0000;8299.5730
1491.0000;8308.3360
1492.0000;8316.5810
1493.0000;8321.0490
1494.0000;8319.4380
1495.0000;8315.7140
1496.0000;8318.7720
1497.0000;8323.6460
1498.0000;8320.2910
1499.0000;8303.7970
1500.0000;8290.1650
1501.0000;8293.9000
1502.0000;8309.5840
1503.0000;8321.2510
1504.0000;8322.2920
1505.0000;8319.7120
1506.0000;8318.7390
1507.0000;8318.7530
1508.0000;8324.1820
1509.0000;8335.0060
1510.0000;8340.7900
1511.0000;8332.2350
1512.0000;8317.7970
1513.0000;8310.7950
1514.0000;8314.6740
1515.0000;8327.7890
1516.0000;8350.4260
1517.0000;8372.4060
1518.0000;8379.5110
1519.0000;8369.1020
1520.0000;8355.6460
1521.0000;8349.2170
1522.0000;8347.1370
1523.0000;8348.6390
1524.0000;8354.5180
1525.0000;8360.4830
1526.0000;8363.7310
1527.0000;8366.1950
1528.0000;8371.1700
1529.0000;8375.8260
1530.0000;8377.6270
1531.0000;8375.2130
1532.0000;8373.9620
1533.0000;8382.1770
1534.0000;8392.9320
1535.0000;8396.6450
1536.0000;8390.3470
1537.0000;8380.4280
1538.0000;8374.7930
1539.0000;8369.3240
1540.0000;8358.0970
1541.0000;8343.5610
1542.0000;8333.9170
1543.0000;8332.2740
1544.0000;8339.3170
1545.0000;8351.2480
1546.0000;8364.5060
1547.0000;8367.0050
1548.0000;8349.9060
1549.0000;8329.4890
1550.0000;8324.7940
1551.0000;8334.0090
1552.0000;8345.0120
1553.0000;8352.2210
1554.0000;8359.6090
1555.0000;8373.0170
1556.0000;8383.2230
1557.0000;8381.7580
1558.0000;8365.3930
1559.0000;8346.6770
1560.0000;8339.4710
1561.0000;8336.8610
1562.0000;8326.2760
1563.0000;8309.3030
1564.0000;8293.0690
1565.0000;8279.1350
1566.0000;8274.4890
1567.0000;8278.3990
1568.0000;8292.9550
1569.0000;8311.4520
1570.0000;8329.4040
1571.0000;8342.2980
1572.0000;8349.9020
1573.0000;8347.2500
1574.0000;8339.3580
1575.0000;8327.8750
1576.0000;8314.4250
1577.0000;8300.9620
1578.0000;8291.4850
1579.0000;8286.0110
1580.0000;8286.4220
1581.0000;8285.3480
1582.0000;8275.3770
1583.0000;8262.6510
1584.0000;8250.2890
1585.0000;8241.3390
1586.0000;8234.9720
1587.0000;8229.9830
1588.0000;8231.2380
1589.0000;8240.7310
1590.0000;8253.7780
1591.0000;8256.1200
1592.0000;8241.1670
1593.0000;8222.9290
1594.0000;8214.0460
1595.0000;8214.4790
1596.0000;8219.3300
1597.0000;8228.0040
1598.0000;8233.5510
1599.0000;8226.3010
1600.0000;8217.5690
1601.0000;8224.7540
1602.0000;8244.1200
1603.0000;8252.3880
1604.0000;8234.7120
1605.0000;8210.0280
1606.0000;8199.3150
1607.0000;8200.9910
1608.0000;8201.1660
1609.0000;8196.1790
1610.0000;8196.4700
1611.0000;8208.9690
1612.0000;8226.9130
1613.0000;8239.6950
1614.0000;8242.9490
1615.0000;8241.4150
1616.0000;8241.7790
1617.0000;8236.0030
1618.0000;8218.9540
1619.0000;8195.7770
1620.0000;8181.2840
1621.0000;8185.3790
1622.0000;8198.2470
1623.0000;8204.8140
1624.0000;8207.4910
1625.0000;8206.0880
1626.0000;8200.3350
1627.0000;8198.7560
1628.0000;8212.5740
1629.0000;8229.1060
1630.0000;8233.8170
1631.0000;8223.8940
1632.0000;8209.6410
1633.0000;8197.1550
1634.0000;8190.9160
1635.0000;8199.0820
1636.0000;8216.2950
1637.0000;8221.7540
1638.0000;8206.3840
1639.0000;8188.6760
1640.0000;8187.1410
1641.0000;8194.6090
1642.0000;8199.8390
1643.0000;8200.4910
1644.0000;8193.5940
1645.0000;8175.3770
1646.0000;8154.6790
1647.0000;8138.7800
1648.0000;8132.4180
1649.0000;8130.2530
1650.0000;8131.5350
1651.0000;8134.3180
1652.0000;8128.7840
1653.0000;8124.1650
1654.0000;8133.1960
1655.0000;8156.0310
1656.0000;8174.2380
1657.0000;8174.9090
1658.0000;8160.8630
1659.0000;8139.3180
1660.0000;8114.3810
1661.0000;8097.3970
1662.0000;8095.6090
1663.0000;8098.4860
1664.0000;8088.1650
1665.0000;8074.0760
1666.0000;8063.1210
1667.0000;8058.3850
1668.0000;8058.3550
1669.0000;8061.2190
1670.0000;8064.9340
1671.0000;8060.7610
1672.0000;8051.3330
1673.0000;8047.4100
1674.0000;8054.4880
1675.0000;8060.2090
1676.0000;8053.3790
1677.0000;8037.0270
1678.0000;8018.0240
1679.0000;7999.9000
1680.0000;7982.3280
1681.0000;7962.3130
1682.0000;7948.3940
1683.0000;7937.6530
1684.0000;7935.2670
1685.0000;7936.7450
1686.0000;7940.5400
1687.0000;7944.7870
1688.0000;7942.9800
1689.0000;7939.6950
1690.0000;7941.9620
1691.0000;7950.3080
1692.0000;7957.5150
1693.0000;7959.8110
1694.0000;7956.2430
1695.0000;7948.9470
1696.0000;7937.4350
1697.0000;7920.5300
1698.0000;7900.0600
1699.0000;7889.1000
1700.0000;7899.1480
1701.0000;7918.1990
1702.0000;7916.2300
1703.0000;7894.4920
1704.0000;7883.6420
1705.0000;7902.4780
1706.0000;7923.3070
1707.0000;7914.3840
1708.0000;7885.3350
1709.0000;7862.4140
1710.0000;7855.2210
1711.0000;7855.3860
1712.0000;7856.2150
1713.0000;7858.7180
1714.0000;7854.9440
1715.0000;7845.6590
1716.0000;7834.6950
1717.0000;7824.1920
1718.0000;7817.7440
1719.0000;7815.6080
1720.0000;7819.7400
1721.0000;7825.7690
1722.0000;7832.2160
1723.0000;7834.8230
1724.0000;7829.4730
1725.0000;7822.1660
1726.0000;7820.7180
1727.0000;7825.3240
1728.0000;7833.3100
1729.0000;7843.3200
1730.0000;7848.2160
1731.0000;7841.2130
1732.0000;7829.0590
1733.0000;7823.4940
1734.0000;7826.5320
1735.0000;7835.5040
1736.0000;7850.1400
1737.0000;7858.8010
1738.0000;7849.7880
1739.0000;7827.9440
1740.0000;7806.6500
1741.0000;7791.7440
1742.0000;7785.4020
1743.0000;7790.7530
1744.0000;7799.4670
1745.0000;7794.3960
1746.0000;7780.3350
1747.0000;7767.6860
1748.0000;7760.9230
1749.0000;7760.1710
1750.0000;7764.4580
1751.0000;7772.0850
1752.0000;7776.5580
1753.0000;7775.8500
1754.0000;7769.0280
1755.0000;7755.1210
1756.0000;7746.6120
1757.0000;7757.9860
1758.0000;7777.7360
1759.0000;7784.5820
1760.0000;7775.3860
1761.0000;7765.9150
1762.0000;7764.8120
1763.0000;7765.5390
1764.0000;7762.2580
1765.0000;7758.1750
1766.0000;7756.3760
1767.0000;7757.8410
1768.0000;7758.8830
1769.0000;7756.5820
1770.0000;7753.3310
1771.0000;7750.9450
1772.0000;7749.5900
1773.0000;7748.0510
1774.0000;7746.2270
1775.0000;7743.0440
1776.0000;7737.0700
1777.0000;7730.1480
1778.0000;7724.5990
1779.0000;7720.1230
1780.0000;7710.7960
1781.0000;7694.5640
1782.0000;7682.0000
1783.0000;7677.6170
1784.0000;7681.7640
1785.0000;7685.9190
1786.0000;7689.6140
1787.0000;7691.0120
1788.0000;7689.1490
1789.0000;7680.7080
1790.0000;7660.1000
1791.0000;7638.4090
1792.0000;7628.6020
1793.0000;7635.6890
1794.0000;7644.6670
1795.0000;7646.6890
1796.0000;7646.9740
1797.0000;7648.5380
1798.0000;7649.3000
1799.0000;7649.0420
1800.0000;7647.1040
1801.0000;7641.6450
1802.0000;7632.1430
1803.0000;7621.1250
1804.0000;7609.0770
1805.0000;7599.6950
1806.0000;7591.7080
1807.0000;7587.1060
1808.0000;7583.2560
1809.0000;7577.5490
1810.0000;7569.5630
1811.0000;7553.3500
1812.0000;7534.8520
1813.0000;7523.5130
1814.0000;7523.4460
1815.0000;7523.3490
1816.0000;7510.5520
1817.0000;7498.6540
1818.0000;7496.5330
1819.0000;7503.9350
1820.0000;7508.4600
1821.0000;7506.7240
1822.0000;7507.7400
1823.0000;7520.1740
1824.0000;7530.6910
1825.0000;7526.1630
1826.0000;7508.4380
1827.0000;7493.7790
1828.0000;7488.9320
1829.0000;7486.2450
1830.0000;7478.3800
1831.0000;7472.2890
1832.0000;7467.5220
1833.0000;7467.9480
1834.0000;7477.5070
1835.0000;7496.8940
1836.0000;7513.8600
1837.0000;7520.4950
1838.0000;7514.8540
1839.0000;7499.7190
1840.0000;7479.5480
1841.0000;7471.6190
1842.0000;7483.9720
1843.0000;7497.3960
1844.0000;7493.7210
1845.0000;7483.5750
1846.0000;7480.5830
1847.0000;7481.5440
1848.0000;7472.9930
1849.0000;7451.6500
1850.0000;7442.7610
1851.0000;7468.3840
1852.0000;7503.7240
1853.0000;7513.2690
1854.0000;7498.1010
1855.0000;7483.8070
1856.0000;7478.6290
1857.0000;7477.0780
1858.0000;7477.4580
1859.0000;7479.8310
1860.0000;7480.4880
1861.0000;7478.9610
1862.0000;7473.8820
1863.0000;7465.4640
1864.0000;7459.6880
1865.0000;7460.0280
1866.0000;7466.3510
1867.0000;7475.7390
1868.0000;7486.3750
1869.0000;7495.7500
1870.0000;7500.6610
1871.0000;7496.0850
1872.0000;7478.6930
1873.0000;7458.8580
1874.0000;7450.5180
1875.0000;7453.9660
1876.0000;7457.0010
1877.0000;7458.0730
1878.0000;7459.3910
1879.0000;7461.3460
1880.0000;7461.3020
1881.0000;7455.8200
1882.0000;7448.5540
1883.0000;7445.5280
1884.0000;7449.8150
1885.0000;7462.8370
1886.0000;7485.9430
1887.0000;7505.6740
1888.0000;7509.9760
1889.0000;7500.5910
1890.0000;7495.8000
1891.0000;7496.1790
1892.0000;7494.8900
1893.0000;7488.4690
1894.0000;7489.5950
1895.0000;7512.0990
1896.0000;7539.0960
1897.0000;7544.1260
1898.0000;7527.4360
1899.0000;7521.7070
1900.0000;7540.6520
1901.0000;7558.5890
1902.0000;7555.3060
1903.0000;7540.0550
1904.0000;7527.8330
1905.0000;7519.2470
1906.0000;7508.7390
1907.0000;7496.8800
1908.0000;7491.2340
1909.0000;7495.2630
1910.0000;7503.2050
1911.0000;7501.4880
1912.0000;7493.8360
1913.0000;7487.6570
1914.0000;7486.2410
1915.0000;7491.6980
1916.0000;7506.5120
1917.0000;7521.7010
1918.0000;7528.0440
1919.0000;7526.7200
1920.0000;7528.6370
1921.0000;7533.7790
1922.0000;7540.7700
1923.0000;7549.8870
1924.0000;7554.3880
1925.0000;7549.5740
1926.0000;7540.1650
1927.0000;7537.8320
1928.0000;7542.2510
1929.0000;7544.6980
1930.0000;7542.0370
1931.0000;7537.8010
1932.0000;7532.5650
1933.0000;7531.5340
1934.0000;7540.3890
1935.0000;7556.8020
1936.0000;7571.3540
1937.0000;7579.7220
1938.0000;7581.1190
1939.0000;7575.9400
1940.0000;7566.1280
1941.0000;7559.9540
1942.0000;7555.2020
1943.0000;7547.2460
1944.0000;7537.6930
1945.0000;7530.0170
1946.0000;7525.3290
1947.0000;7528.5630
1948.0000;7541.6440
1949.0000;7558.2870
1950.0000;7566.1590
1951.0000;7563.7160
1952.0000;7559.6490
1953.0000;7556.4320
1954.0000;7554.8610
1955.0000;7555.4700
1956.0000;7561.9330
1957.0000;7577.5250
1958.0000;7597.0830
1959.0000;7610.0480
1960.0000;7612.6280
1961.0000;7616.1630
1962.0000;7626.0710
1963.0000;7638.7000
1964.0000;7655.9830
1965.0000;7671.9400
1966.0000;7683.9890
1967.0000;7689.4410
1968.0000;7698.2650
1969.0000;7712.1410
1970.0000;7719.8900
1971.0000;7715.6650
1972.0000;7706.4600
1973.0000;7704.5550
1974.0000;7708.8500
1975.0000;7717.9970
1976.0000;7729.7160
1977.0000;7735.2360
1978.0000;7729.1300
1979.0000;7720.2000
1980.0000;7716.4380
1981.0000;7718.4790
1982.0000;7727.0000
1983.0000;7740.1670
1984.0000;7750.8410
1985.0000;7755.0840
1986.0000;7756.0700
1987.0000;7756.4730
1988.0000;7755.6320
1989.0000;7757.4580
1990.0000;7759.3300
1991.0000;7758.0510
1992.0000;7753.6860
1993.0000;7749.5120
1994.0000;7747.1880
1995.0000;7750.0960
1996.0000;7762.1030
1997.0000;7774.4550
1998.0000;7773.9130
1999.0000;7765.2750
2000.0000;7768.4840
2001.0000;7785.6180
2002.0000;7797.9760
2003.0000;7794.2440
2004.0000;7789.1890
2005.0000;7800.6660
2006.0000;7816.5230
2007.0000;7824.0500
2008.0000;7821.6880
2009.0000;7818.9210
2010.0000;7818.0260
2011.0000;7815.0500
2012.0000;7808.3550
2013.0000;7802.9480
2014.0000;7805.0280
2015.0000;7809.3380
2016.0000;7801.8060
2017.0000;7785.7990
2018.0000;7780.8720
2019.0000;7795.8670
2020.0000;7813.6630
2021.0000;7820.7690
2022.0000;7822.6110
2023.0000;7829.0370
2024.0000;7833.2280
2025.0000;7827.8980
2026.0000;7814.6850
2027.0000;7811.0510
2028.0000;7825.9610
2029.0000;7843.4010
2030.0000;7848.1230
2031.0000;7845.8310
2032.0000;7845.1700
2033.0000;7845.3720
2034.0000;7849.3570
2035.0000;7856.9320
2036.0000;7864.6560
2037.0000;7871.2550
2038.0000;7868.3850
2039.0000;7849.9530
2040.0000;7825.6410
2041.0000;7811.5830
2042.0000;7810.4150
2043.0000;7813.9070
2044.0000;7820.5930
2045.0000;7823.2490
2046.0000;7815.3410
2047.0000;7807.3000
2048.0000;7807.7840
2049.0000;7814.0810
2050.0000;7822.4430
2051.0000;7828.5960
2052.0000;7822.3360
2053.0000;7802.4640
2054.0000;7785.1810
2055.0000;7782.0690
2056.0000;7786.9000
2057.0000;7790.5080
2058.0000;7794.9650
2059.0000;7796.6270
2060.0000;7795.2030
2061.0000;7794.2340
2062.0000;7794.1710
2063.0000;7791.4160
2064.0000;7784.2530
2065.0000;7778.0000
2066.0000;7776.5470
2067.0000;7780.1400
2068.0000;7786.6260
2069.0000;7793.3730
2070.0000;7792.1640
2071.0000;7781.4300
2072.0000;7773.7560
2073.0000;7776.0800
2074.0000;7784.9470
2075.0000;7797.8470
2076.0000;7808.5000
2077.0000;7808.2910
2078.0000;7797.1690
2079.0000;7785.2230
2080.0000;7776.8190
2081.0000;7774.2460
2082.0000;7779.4140
2083.0000;7793.4130
2084.0000;7817.9610
2085.0000;7836.7560
2086.0000;7832.2670
2087.0000;7809.8940
2088.0000;7800.1990
2089.0000;7808.2270
2090.0000;7819.9890
2091.0000;7829.0000
2092.0000;7839.3710
2093.0000;7854.3730
2094.0000;7863.6710
2095.0000;7861.7550
2096.0000;7850.4690
2097.0000;7845.0640
2098.0000;7846.1050
2099.0000;7843.5750
2100.0000;7834.5640
2101.0000;7824.1280
2102.0000;7813.4400
2103.0000;7810.2480
2104.0000;7816.5490
2105.0000;7833.9580
2106.0000;7860.9310
2107.0000;7886.8060
2108.0000;7890.9770
2109.0000;7865.8560
2110.0000;7838.9840
2111.0000;7830.1830
2112.0000;7833.4000
2113.0000;7840.3810
2114.0000;7853.1770
2115.0000;7866.0100
2116.0000;7875.5710
2117.0000;7881.6660
2118.0000;7882.5790
2119.0000;7885.5670
2120.0000;7894.9560
2121.0000;7895.2590
2122.0000;7873.0920
2123.0000;7849.9850
2124.0000;7852.5180
2125.0000;7872.8600
2126.0000;7885.3050
2127.0000;7886.6510
2128.0000;7883.7670
2129.0000;7877.9960
2130.0000;7874.8740
2131.0000;7881.5160
2132.0000;7885.3270
2133.0000;7869.5530
2134.0000;7850.4810
2135.0000;7854.9710
2136.0000;7876.1880
2137.0000;7883.4280
2138.0000;7871.3750
2139.0000;7862.6160
2140.0000;7867.7390
2141.0000;7874.7520
2142.0000;7877.0580
2143.0000;7872.2360
2144.0000;7854.5280
2145.0000;7834.1620
2146.0000;7831.6630
2147.0000;7846.6080
2148.0000;7848.1960
2149.0000;7828.6070
2150.0000;7810.5910
2151.0000;7807.5960
2152.0000;7810.9000
2153.0000;7809.6910
2154.0000;7807.9110
2155.0000;7800.5090
2156.0000;7795.7910
2157.0000;7812.1050
2158.0000;7846.0680
2159.0000;7863.0290
2160.0000;7845.9460
2161.0000;7821.1330
2162.0000;7809.0210
2163.0000;7803.9170
2164.0000;7800.9540
2165.0000;7802.6010
2166.0000;7802.0100
2167.0000;7800.2240
2168.0000;7799.0390
2169.0000;7798.2910
2170.0000;7793.7750
2171.0000;7784.1500
2172.0000;7776.0240
2173.0000;7773.6210
2174.0000;7776.2780
2175.0000;7779.7760
2176.0000;7783.9300
2177.0000;7785.2850
2178.0000;7783.6930
2179.0000;7782.5370
2180.0000;7782.4270
2181.0000;7780.8540
2182.0000;7776.9360
2183.0000;7774.7110
2184.0000;7776.6580
2185.0000;7782.0900
2186.0000;7788.8130
2187.0000;7796.0270
2188.0000;7806.6330
2189.0000;7814.7160
2190.0000;7807.6580
2191.0000;7784.0240
2192.0000;7770.5810
2193.0000;7782.0590
2194.0000;7799.8910
2195.0000;7807.8610
2196.0000;7810.7720
2197.0000;7811.4690
2198.0000;7813.4480
2199.0000;7833.8710
2200.0000;7860.7660
2201.0000;7861.7730
2202.0000;7828.8660
2203.0000;7802.4910
2204.0000;7803.4300
2205.0000;7806.9260
2206.0000;7791.1190
2207.0000;7776.8600
2208.0000;7776.9360
2209.0000;7789.9580
2210.0000;7808.5790
2211.0000;7824.8650
2212.0000;7818.0760
2213.0000;7787.9820
2214.0000;7770.9460
2215.0000;7786.1920
2216.0000;7806.4220
2217.0000;7813.6650
2218.0000;7811.4310
2219.0000;7801.5620
2220.0000;7789.3540
2221.0000;7789.0100
2222.0000;7798.6120
2223.0000;7808.4630
2224.0000;7813.5540
2225.0000;7804.7260
2226.0000;7780.4960
2227.0000;7766.4910
2228.0000;7782.6610
2229.0000;7802.2130
2230.0000;7797.5990
2231.0000;7782.4470
2232.0000;7775.1650
2233.0000;7771.9880
2234.0000;7762.7590
2235.0000;7751.8550
2236.0000;7749.4660
2237.0000;7757.9130
2238.0000;7762.0040
2239.0000;7753.3520
2240.0000;7743.3970
2241.0000;7739.6740
2242.0000;7741.1750
2243.0000;7747.3130
2244.0000;7753.2760
2245.0000;7747.2110
2246.0000;7734.3590
2247.0000;7734.0280
2248.0000;7746.1240
2249.0000;7746.5690
2250.0000;7727.8030
2251.0000;7709.5120
2252.0000;7702.2140
2253.0000;7711.2710
2254.0000;7743.3890
2255.0000;7773.4460
2256.0000;7768.2670
2257.0000;7739.4630
2258.0000;7723.3760
2259.0000;7722.1600
2260.0000;7726.5870
2261.0000;7734.8800
2262.0000;7735.8080
2263.0000;7723.8770
2264.0000;7714.7390
2265.0000;7718.3380
2266.0000;7729.7720
2267.0000;7743.8370
2268.0000;7756.6580
2269.0000;7763.8210
2270.0000;7764.0000
2271.0000;7765.2070
2272.0000;7767.0750
2273.0000;7771.2800
2274.0000;7777.5640
2275.0000;7783.4750
2276.0000;7787.3560
2277.0000;7792.1320
2278.0000;7801.9530
2279.0000;7805.4470
2280.0000;7794.1500
2281.0000;7776.4360
2282.0000;7765.2540
2283.0000;7762.9360
2284.0000;7766.7740
2285.0000;7775.0860
2286.0000;7776.3290
2287.0000;7767.9800
2288.0000;7759.1180
2289.0000;7754.6920
2290.0000;7754.9470
2291.0000;7760.7070
2292.0000;7766.8500
2293.0000;7766.5860
2294.0000;7762.0790
2295.0000;7757.3190
2296.0000;7752.3750
2297.0000;7745.7190
2298.0000;7741.1140
2299.0000;7744.3720
2300.0000;7755.5790
2301.0000;7765.1880
2302.0000;7767.7100
2303.0000;7764.8810
2304.0000;7757.0130
2305.0000;7751.7500
2306.0000;7757.4810
2307.0000;7766.3780
2308.0000;7772.2060
2309.0000;7768.9030
2310.0000;7747.5160
2311.0000;7718.6390
2312.0000;7711.8220
2313.0000;7728.6140
2314.0000;7734.7120
2315.0000;7722.8230
2316.0000;7715.0410
2317.0000;7721.2650
2318.0000;7733.8410
2319.0000;7748.2150
2320.0000;7755.8250
2321.0000;7746.2330
2322.0000;7731.8510
2323.0000;7731.4540
2324.0000;7743.8380
2325.0000;7764.3440
2326.0000;7785.3950
2327.0000;7795.9850
2328.0000;7790.0590
2329.0000;7776.8170
2330.0000;7761.3680
2331.0000;7753.4720
2332.0000;7760.2930
2333.0000;7769.4000
2334.0000;7768.9330
2335.0000;7765.5000
2336.0000;7764.1920
2337.0000;7765.1620
2338.0000;7768.2380
2339.0000;7775.3940
2340.0000;7792.5880
2341.0000;7811.3110
2342.0000;7811.8860
2343.0000;7792.4060
2344.0000;7783.0160
2345.0000;7794.3820
2346.0000;7802.8830
2347.0000;7796.4640
2348.0000;7795.1830
2349.0000;7815.3710
2350.0000;7830.8000
2351.0000;7815.8860
2352.0000;7785.8980
2353.0000;7763.0960
2354.0000;7755.0650
2355.0000;7767.8540
2356.0000;7793.1250
2357.0000;7788.3760
2358.0000;7754.4620
2359.0000;7743.2150
2360.0000;7768.4150
2361.0000;7786.3780
2362.0000;7775.3940
2363.0000;7761.4270
2364.0000;7761.0330
2365.0000;7764.9230
2366.0000;7768.6480
2367.0000;7767.0520
2368.0000;7749.0150
2369.0000;7728.9220
2370.0000;7729.9140
2371.0000;7746.8490
2372.0000;7752.9720
2373.0000;7747.2290
2374.0000;7742.6670
2375.0000;7741.6630
2376.0000;7740.6320
2377.0000;7739.4240
2378.0000;7743.9790
2379.0000;7756.9540
2380.0000;7767.8660
2381.0000;7768.6630
2382.0000;7764.0320
2383.0000;7760.5690
2384.0000;7760.3090
2385.0000;7770.8860
2386.0000;7782.6580
2387.0000;7777.7750
2388.0000;7761.8440
2389.0000;7761.2350
2390.0000;7771.8990
2391.0000;7756.3320
2392.0000;7714.4480
2393.0000;7690.7890
2394.0000;7704.1410
2395.0000;7726.6300
2396.0000;7740.9920
2397.0000;7750.4920
2398.0000;7753.9140
2399.0000;7751.6690
2400.0000;7749.6230
2401.0000;7749.2560
2402.0000;7756.5770
2403.0000;7767.3160
2404.0000;7776.2630
2405.0000;7778.1180
2406.0000;7767.6490
2407.0000;7748.4380
2408.0000;7740.2340
2409.0000;7746.8230
2410.0000;7755.0320
2411.0000;7759.2200
2412.0000;7749.1240
2413.0000;7720.4950
2414.0000;7697.5720
2415.0000;7697.0960
2416.0000;7709.8910
2417.0000;7722.2130
2418.0000;7738.4000
2419.0000;7760.2920
2420.0000;7774.3200
2421.0000;7773.1020
2422.0000;7757.5390
2423.0000;7744.0460
2424.0000;7734.3050
2425.0000;7724.4460
2426.0000;7719.1700
2427.0000;7722.0140
2428.0000;7733.2880
2429.0000;7743.4280
2430.0000;7747.2620
2431.0000;7740.3600
2432.0000;7721.4630
2433.0000;7703.3780
2434.0000;7698.0950
2435.0000;7693.6840
2436.0000;7678.3400
2437.0000;7663.4740
2438.0000;7653.8370
2439.0000;7652.2130
2440.0000;7651.6900
2441.0000;7657.3900
2442.0000;7669.6670
2443.0000;7683.7260
2444.0000;7689.9540
2445.0000;7686.3220
2446.0000;7681.1790
2447.0000;7676.3380
2448.0000;7674.7120
2449.0000;7677.1020
2450.0000;7675.3610
2451.0000;7666.5820
2452.0000;7655.4770
2453.0000;7644.3490
2454.0000;7641.2780
2455.0000;7651.5250
2456.0000;7661.4330
2457.0000;7654.5870
2458.0000;7646.5000
2459.0000;7654.7290
2460.0000;7669.1760
2461.0000;7681.0830
2462.0000;7682.5750
2463.0000;7664.4420
2464.0000;7636.6540
2465.0000;7622.4820
2466.0000;7626.6510
2467.0000;7635.0970
2468.0000;7644.5260
2469.0000;7646.2740
2470.0000;7637.4830
2471.0000;7629.6570
2472.0000;7627.1560
2473.0000;7623.5260
2474.0000;7617.1880
2475.0000;7608.2350
2476.0000;7596.1200
2477.0000;7591.9430
2478.0000;7602.1110
2479.0000;7618.2120
2480.0000;7629.3820
2481.0000;7635.7140
2482.0000;7638.3050
2483.0000;7638.1760
2484.0000;7644.0730
2485.0000;7653.4290
2486.0000;7665.5600
2487.0000;7676.7150
2488.0000;7685.1180
2489.0000;7689.2500
2490.0000;7698.6470
2491.0000;7708.4520
2492.0000;7708.9670
2493.0000;7696.4030
2494.0000;7673.8110
2495.0000;7646.1660
2496.0000;7622.6960
2497.0000;7611.4330
2498.0000;7610.9330
2499.0000;7619.0800
2500.0000;7630.1140
2501.0000;7635.7000
2502.0000;7639.9330
2503.0000;7646.5940
2504.0000;7647.5860
2505.0000;7637.7680
2506.0000;7626.7300
2507.0000;7628.3100
2508.0000;7634.9890
2509.0000;7631.2100
2510.0000;7626.7750
2511.0000;7637.1300
2512.0000;7653.3030
2513.0000;7656.1260
2514.0000;7647.6950
2515.0000;7645.0160
2516.0000;7649.4760
2517.0000;7658.4580
2518.0000;7668.0960
2519.0000;7666.3910
2520.0000;7651.9750
2521.0000;7644.4070
2522.0000;7651.0580
2523.0000;7659.8470
2524.0000;7665.3380
2525.0000;7665.6150
2526.0000;7659.0480
2527.0000;7645.0290
2528.0000;7625.2540
2529.0000;7603.1920
2530.0000;7579.8420
2531.0000;7565.7080
2532.0000;7564.0120
2533.0000;7571.7840
2534.0000;7575.8700
2535.0000;7577.2550
2536.0000;7574.0710
2537.0000;7565.7310
2538.0000;7554.9490
2539.0000;7543.2730
2540.0000;7528.9390
2541.0000;7519.3400
2542.0000;7518.4110
2543.0000;7524.5860
2544.0000;7521.8190
2545.0000;7512.4480
2546.0000;7506.9710
2547.0000;7507.8340
2548.0000;7511.7050
2549.0000;7517.0710
2550.0000;7517.1170
2551.0000;7510.8630
2552.0000;7510.3000
2553.0000;7518.8800
2554.0000;7525.4740
2555.0000;7525.3130
2556.0000;7524.5190
2557.0000;7526.1640
2558.0000;7518.4350
2559.0000;7496.0460
2560.0000;7481.8460
2561.0000;7492.6080
2562.0000;7511.1650
2563.0000;7519.9690
2564.0000;7521.9430
2565.0000;7519.9500
2566.0000;7512.7490
2567.0000;7504.6290
2568.0000;7495.9730
2569.0000;7483.9610
2570.0000;7479.2610
2571.0000;7493.1280
2572.0000;7510.4360
2573.0000;7503.3080
2574.0000;7482.0230
2575.0000;7473.8300
2576.0000;7475.7490
2577.0000;7473.3670
2578.0000;7469.6840
2579.0000;7468.7430
2580.0000;7469.9360
2581.0000;7467.8300
2582.0000;7462.9130
2583.0000;7458.3110
2584.0000;7455.9280
2585.0000;7456.3060
2586.0000;7459.6660
2587.0000;7462.3410
2588.0000;7462.8660
2589.0000;7462.1080
2590.0000;7460.5170
2591.0000;7461.3570
2592.0000;7465.4580
2593.0000;7463.2790
2594.0000;7451.7450
2595.0000;7452.0810
2596.0000;7474.1060
2597.0000;7495.6290
2598.0000;7502.6710
2599.0000;7499.7710
2600.0000;7491.0440
2601.0000;7476.0480
2602.0000;7458.8520
2603.0000;7445.8230
2604.0000;7441.8840
2605.0000;7440.6030
2606.0000;7429.6370
2607.0000;7421.4940
2608.0000;7425.2730
2609.0000;7429.1430
2610.0000;7413.2090
2611.0000;7399.3710
2612.0000;7410.0730
2613.0000;7433.2920
2614.0000;7447.1200
2615.0000;7452.7500
2616.0000;7457.5780
2617.0000;7455.6230
2618.0000;7447.5060
2619.0000;7438.4170
2620.0000;7439.4380
2621.0000;7448.1740
2622.0000;7454.9540
2623.0000;7457.9640
2624.0000;7457.6620
2625.0000;7453.6690
2626.0000;7449.1800
2627.0000;7446.3340
2628.0000;7450.8050
2629.0000;7456.8510
2630.0000;7442.4580
2631.0000;7417.3840
2632.0000;7420.7720
2633.0000;7453.0370
2634.0000;7475.0080
2635.0000;7476.5490
2636.0000;7461.3480
2637.0000;7435.4080
2638.0000;7427.7820
2639.0000;7442.9570
2640.0000;7445.1910
2641.0000;7427.8690
2642.0000;7412.4070
2643.0000;7406.0020
2644.0000;7402.7140
2645.0000;7402.4150
2646.0000;7405.1810
2647.0000;7409.3880
2648.0000;7407.8930
2649.0000;7398.7950
2650.0000;7396.0170
2651.0000;7405.1750
2652.0000;7411.7630
2653.0000;7409.0610
2654.0000;7400.0760
2655.0000;7386.4790
2656.0000;7367.7310
2657.0000;7346.0750
2658.0000;7330.2090
2659.0000;7326.2580
2660.0000;7325.4710
2661.0000;7320.3260
2662.0000;7322.9640
2663.0000;7337.6130
2664.0000;7350.2570
2665.0000;7349.7450
2666.0000;7344.8670
2667.0000;7341.8690
2668.0000;7343.9580
2669.0000;7355.5420
2670.0000;7364.1500
2671.0000;7361.6830
2672.0000;7347.6170
2673.0000;7322.1310
2674.0000;7312.5290
2675.0000;7345.3930
2676.0000;7369.9580
2677.0000;7340.9160
2678.0000;7302.8280
2679.0000;7295.0110
2680.0000;7305.2150
2681.0000;7323.2210
2682.0000;7336.0820
2683.0000;7326.8800
2684.0000;7308.0830
2685.0000;7295.5000
2686.0000;7288.7780
2687.0000;7288.4890
2688.0000;7290.9280
2689.0000;7286.4640
2690.0000;7281.0790
2691.0000;7281.5410
2692.0000;7276.1880
2693.0000;7250.7030
2694.0000;7227.2480
2695.0000;7222.9420
2696.0000;7233.0640
2697.0000;7241.6440
2698.0000;7250.4400
2699.0000;7258.4570
2700.0000;7256.7080
2701.0000;7237.9310
2702.0000;7220.8660
2703.0000;7229.7050
2704.0000;7250.4610
2705.0000;7263.9140
2706.0000;7265.6270
2707.0000;7251.3000
2708.0000;7233.6570
2709.0000;7231.4720
2710.0000;7242.1710
2711.0000;7259.9900
2712.0000;7273.9570
2713.0000;7269.7060
2714.0000;7257.2790
2715.0000;7255.9610
2716.0000;7257.7730
2717.0000;7255.1780
2718.0000;7251.3320
2719.0000;7248.5850
2720.0000;7244.2610
2721.0000;7235.6460
2722.0000;7223.6490
2723.0000;7205.5080
2724.0000;7192.3840
2725.0000;7191.1920
2726.0000;7196.0690
2727.0000;7192.4150
2728.0000;7184.8530
2729.0000;7169.8560
2730.0000;7168.1100
2731.0000;7202.2460
2732.0000;7237.4400
2733.0000;7231.9170
2734.0000;7208.6140
2735.0000;7198.7280
2736.0000;7196.2000
2737.0000;7199.9910
2738.0000;7203.4060
2739.0000;7195.2670
2740.0000;7183.6440
2741.0000;7174.4940
2742.0000;7172.8520
2743.0000;7181.2350
2744.0000;7190.4350
2745.0000;7186.8190
2746.0000;7184.3040
2747.0000;7197.6530
2748.0000;7204.8990
2749.0000;7187.3370
2750.0000;7175.5210
2751.0000;7198.0410
2752.0000;7218.8260
2753.0000;7208.0140
2754.0000;7190.8320
2755.0000;7188.8310
2756.0000;7182.8010
2757.0000;7160.8540
2758.0000;7142.7760
2759.0000;7142.2820
2760.0000;7144.1550
2761.0000;7135.7120
2762.0000;7129.6690
2763.0000;7132.0540
2764.0000;7134.5180
2765.0000;7131.6380
2766.0000;7122.8070
2767.0000;7108.2710
2768.0000;7107.3630
2769.0000;7129.8450
2770.0000;7145.3390
2771.0000;7136.1460
2772.0000;7123.9800
2773.0000;7120.1550
2774.0000;7118.0040
2775.0000;7116.9380
2776.0000;7122.3680
2777.0000;7134.2530
2778.0000;7135.6380
2779.0000;7120.9860
2780.0000;7112.6840
2781.0000;7117.4730
2782.0000;7112.3140
2783.0000;7093.1870
2784.0000;7079.4960
2785.0000;7077.8870
2786.0000;7079.3670
2787.0000;7082.8340
2788.0000;7090.6240
2789.0000;7098.8710
2790.0000;7095.7390
2791.0000;7080.1430
2792.0000;7062.2670
2793.0000;7048.9390
2794.0000;7042.7200
2795.0000;7046.1230
2796.0000;7050.3070
2797.0000;7053.8660
2798.0000;7052.1370
2799.0000;7050.7080
2800.0000;7068.5710
2801.0000;7095.1550
2802.0000;7107.8400
2803.0000;7102.0530
2804.0000;7088.9820
2805.0000;7076.2310
2806.0000;7085.9980
2807.0000;7102.2680
2808.0000;7087.7380
2809.0000;7061.5680
2810.0000;7058.2530
2811.0000;7068.2820
2812.0000;7071.3680
2813.0000;7070.6460
2814.0000;7064.4490
2815.0000;7062.2280
2816.0000;7077.6270
2817.0000;7093.9310
2818.0000;7091.9500
2819.0000;7084.3300
2820.0000;7087.6900
2821.0000;7091.0580
2822.0000;7086.5890
2823.0000;7084.0280
2824.0000;7090.7150
2825.0000;7094.7320
2826.0000;7087.8730
2827.0000;7083.3640
2828.0000;7089.4540
2829.0000;7090.6490
2830.0000;7079.3640
2831.0000;7071.2000
2832.0000;7074.1470
2833.0000;7080.1530
2834.0000;7085.5680
2835.0000;7089.7920
2836.0000;7091.0060
2837.0000;7091.1010
2838.0000;7088.0210
2839.0000;7070.6880
2840.0000;7040.6400
2841.0000;7007.7410
2842.0000;6985.8360
2843.0000;6980.3810
2844.0000;6994.2960
2845.0000;7005.7320
2846.0000;7013.0410
2847.0000;7025.7450
2848.0000;7034.1670
2849.0000;7023.4400
2850.0000;7001.4140
2851.0000;6991.0900
2852.0000;6993.2170
2853.0000;6997.3740
2854.0000;7004.5500
2855.0000;7009.3510
2856.0000;7012.4000
2857.0000;7018.9990
2858.0000;7019.0690
2859.0000;7003.5420
2860.0000;6991.9570
2861.0000;7004.3080
2862.0000;7018.3390
2863.0000;7015.5130
2864.0000;7001.9850
2865.0000;6982.9740
2866.0000;6975.1680
2867.0000;6990.1770
2868.0000;7000.5070
2869.0000;6990.8200
2870.0000;6983.8360
2871.0000;6988.3060
2872.0000;6992.6730
2873.0000;6992.4550
2874.0000;6982.5080
2875.0000;6963.6210
2876.0000;6946.6110
2877.0000;6938.6320
2878.0000;6944.3950
2879.0000;6957.6610
2880.0000;6948.2870
2881.0000;6922.9460
2882.0000;6912.0630
2883.0000;6916.3230
2884.0000;6922.7870
2885.0000;6928.2420
2886.0000;6920.4140
2887.0000;6912.2980
2888.0000;6926.3540
2889.0000;6943.4760
2890.0000;6938.9290
2891.0000;6934.1140
2892.0000;6953.4330
2893.0000;6970.9860
2894.0000;6969.4350
2895.0000;6956.8800
2896.0000;6941.4520
2897.0000;6936.2200
2898.0000;6949.7310
2899.0000;6963.3220
2900.0000;6968.0640
2901.0000;6978.8700
2902.0000;6995.0480
2903.0000;6993.9510
2904.0000;6972.9390
2905.0000;6958.2550
2906.0000;6956.4730
2907.0000;6961.2610
2908.0000;6966.6110
2909.0000;6949.1830
2910.0000;6922.3470
2911.0000;6922.0900
2912.0000;6937.7790
2913.0000;6934.6570
2914.0000;6922.0290
2915.0000;6909.9760
2916.0000;6907.3780
2917.0000;6921.4900
2918.0000;6943.3520
2919.0000;6963.1430
2920.0000;6959.6950
2921.0000;6918.9720
2922.0000;6895.9170
2923.0000;6927.0690
2924.0000;6939.0950
2925.0000;6899.4830
2926.0000;6860.1280
2927.0000;6842.6700
2928.0000;6835.5050
2929.0000;6840.2160
2930.0000;6847.1500
2931.0000;6854.4550
2932.0000;6864.1850
2933.0000;6871.5530
2934.0000;6871.9450
2935.0000;6867.2630
2936.0000;6866.6820
2937.0000;6873.3530
2938.0000;6896.0520
2939.0000;6909.9070
2940.0000;6885.6020
2941.0000;6855.8610
2942.0000;6861.6450
2943.0000;6867.6630
2944.0000;6845.8280
2945.0000;6837.9680
2946.0000;6863.1870
2947.0000;6882.8480
2948.0000;6877.9390
2949.0000;6867.9710
2950.0000;6858.5840
2951.0000;6848.7350
2952.0000;6840.1110
2953.0000;6827.5630
2954.0000;6816.0200
2955.0000;6810.6400
2956.0000;6810.2290
2957.0000;6798.0550
2958.0000;6786.9560
2959.0000;6796.4000
2960.0000;6810.5430
2961.0000;6803.0990
2962.0000;6788.9800
2963.0000;6783.3430
2964.0000;6785.2110
2965.0000;6793.8750
2966.0000;6803.6150
2967.0000;6808.1070
2968.0000;6798.6350
2969.0000;6776.2530
2970.0000;6775.2030
2971.0000;6801.8420
2972.0000;6814.0580
2973.0000;6805.4280
2974.0000;6796.1160
2975.0000;6788.0120
2976.0000;6780.6250
2977.0000;6780.3740
2978.0000;6796.8240
2979.0000;6807.0840
2980.0000;6774.1810
2981.0000;6741.9040
2982.0000;6760.0730
2983.0000;6785.3220
2984.0000;6782.2330
2985.0000;6771.1360
2986.0000;6762.6630
2987.0000;6765.5420
2988.0000;6781.8230
2989.0000;6781.7550
2990.0000;6760.5250
2991.0000;6746.8460
2992.0000;6744.9810
2993.0000;6738.7610
2994.0000;6734.5170
2995.0000;6742.3280
2996.0000;6753.9630
2997.0000;6751.8210
2998.0000;6743.8940
2999.0000;6739.2940
3000.0000;6747.0530
3001.0000;6776.3050
3002.0000;6788.2070
3003.0000;6758.5820
3004.0000;6731.6770
3005.0000;6730.6050
3006.0000;6739.4700
3007.0000;6751.4530
3008.0000;6749.9130
3009.0000;6731.9770
3010.0000;6709.7910
3011.0000;6689.2820
3012.0000;6669.5470
3013.0000;6661.8190
3014.0000;6664.0980
3015.0000;6679.6880
3016.0000;6702.2020
3017.0000;6716.6590
3018.0000;6710.6820
3019.0000;6693.9420
3020.0000;6677.3000
3021.0000;6671.0300
3022.0000;6680.1170
3023.0000;6679.5360
3024.0000;6664.9620
3025.0000;6649.4190
3026.0000;6638.6910
3027.0000;6632.8260
3028.0000;6635.1520
3029.0000;6641.2420
3030.0000;6646.6200
3031.0000;6641.8900
3032.0000;6635.1780
3033.0000;6636.1000
3034.0000;6638.7430
3035.0000;6639.2370
3036.0000;6635.7360
3037.0000;6628.2160
3038.0000;6623.6460
3039.0000;6625.3020
3040.0000;6631.5380
3041.0000;6638.9840
3042.0000;6644.8130
3043.0000;6636.4430
3044.0000;6592.5830
3045.0000;6545.9870
3046.0000;6543.5060
3047.0000;6564.3580
3048.0000;6572.6450
3049.0000;6580.5680
3050.0000;6589.9040
3051.0000;6588.1310
3052.0000;6573.3320
3053.0000;6575.3090
3054.0000;6596.4790
3055.0000;6600.6720
3056.0000;6587.2000
3057.0000;6584.2020
3058.0000;6588.2710
3059.0000;6586.6140
3060.0000;6582.5360
3061.0000;6580.4720
3062.0000;6575.9830
3063.0000;6565.5670
3064.0000;6560.6910
3065.0000;6567.3230
3066.0000;6561.9520
3067.0000;6538.4840
3068.0000;6519.7300
3069.0000;6514.5750
3070.0000;6521.6470
3071.0000;6533.1420
3072.0000;6520.8920
3073.0000;6503.5000
3074.0000;6513.9190
3075.0000;6534.6040
3076.0000;6544.0670
3077.0000;6545.1900
3078.0000;6539.7770
3079.0000;6534.1300
3080.0000;6533.1450
3081.0000;6533.2690
3082.0000;6532.5400
3083.0000;6523.9960
3084.0000;6510.7090
3085.0000;6501.6840
3086.0000;6497.7700
3087.0000;6490.7190
3088.0000;6487.9800
3089.0000;6492.0380
3090.0000;6498.9960
3091.0000;6503.6640
3092.0000;6505.4150
3093.0000;6504.5520
3094.0000;6513.3700
3095.0000;6531.0040
3096.0000;6545.8030
3097.0000;6552.1270
3098.0000;6555.3040
3099.0000;6553.0570
3100.0000;6551.1220
3101.0000;6548.0750
3102.0000;6545.6710
3103.0000;6538.7700
3104.0000;6525.0680
3105.0000;6522.3890
3106.0000;6535.8970
3107.0000;6541.4930
3108.0000;6532.5590
3109.0000;6516.5580
3110.0000;6498.6850
3111.0000;6482.7860
3112.0000;6480.4310
3113.0000;6499.4140
3114.0000;6510.2440
3115.0000;6481.2500
3116.0000;6468.0450
3117.0000;6498.5010
3118.0000;6499.3460
3119.0000;6457.2990
3120.0000;6437.5460
3121.0000;6446.0300
3122.0000;6441.2430
3123.0000;6434.9110
3124.0000;6444.7470
3125.0000;6455.3400
3126.0000;6447.8780
3127.0000;6437.3390
3128.0000;6434.7610
3129.0000;6419.1040
3130.0000;6390.7830
3131.0000;6386.4050
3132.0000;6410.4930
3133.0000;6427.4410
3134.0000;6430.8640
3135.0000;6421.8350
3136.0000;6405.2200
3137.0000;6393.3210
3138.0000;6390.0990
3139.0000;6396.8300
3140.0000;6397.6570
3141.0000;6385.8310
3142.0000;6384.8290
3143.0000;6395.8530
3144.0000;6394.6910
3145.0000;6383.8520
3146.0000;6376.9130
3147.0000;6377.0940
3148.0000;6388.1730
3149.0000;6389.9720
3150.0000;6366.0130
3151.0000;6343.7540
3152.0000;6338.4120
3153.0000;6342.5880
3154.0000;6352.2200
3155.0000;6351.2850
3156.0000;6340.0170
3157.0000;6323.9510
3158.0000;6317.4690
3159.0000;6335.8300
3160.0000;6355.4140
3161.0000;6352.7300
3162.0000;6347.6850
3163.0000;6347.8600
3164.0000;6343.7090
3165.0000;6333.4760
3166.0000;6310.8060
3167.0000;6292.8510
3168.0000;6305.8890
3169.0000;6333.6640
3170.0000;6347.4990
3171.0000;6351.6770
3172.0000;6349.4770
3173.0000;6340.0440
3174.0000;6327.0960
3175.0000;6321.2360
3176.0000;6321.9000
3177.0000;6307.5820
3178.0000;6291.6390
3179.0000;6293.5660
3180.0000;6307.6800
3181.0000;6321.9980
3182.0000;6334.0710
3183.0000;6339.8860
3184.0000;6349.1630
3185.0000;6361.4880
3186.0000;6368.7850
3187.0000;6367.6140
3188.0000;6363.8790
3189.0000;6356.4430
3190.0000;6346.0740
3191.0000;6341.8490
3192.0000;6349.5550
3193.0000;6357.1530
3194.0000;6357.2170
3195.0000;6350.2780
3196.0000;6339.1110
3197.0000;6333.5160
3198.0000;6333.8780
3199.0000;6333.0700
3200.0000;6331.4080
3201.0000;6327.1510
3202.0000;6321.5470
3203.0000;6315.6160
3204.0000;6303.5730
3205.0000;6289.4980
3206.0000;6290.8020
3207.0000;6300.8640
3208.0000;6288.7290
3209.0000;6273.8820
3210.0000;6282.7500
3211.0000;6286.3930
3212.0000;6265.6430
3213.0000;6255.1820
3214.0000;6264.7360
3215.0000;6265.4220
3216.0000;6255.1510
3217.0000;6242.0340
3218.0000;6232.1880
3219.0000;6231.9680
3220.0000;6234.3940
3221.0000;6230.8190
3222.0000;6216.7720
3223.0000;6197.0180
3224.0000;6213.9710
3225.0000;6256.0620
3226.0000;6256.8300
3227.0000;6231.7870
3228.0000;6229.7170
3229.0000;6231.5170
3230.0000;6224.9040
3231.0000;6217.0920
3232.0000;6210.2280
3233.0000;6199.4490
3234.0000;6187.0560
3235.0000;6175.0010
3236.0000;6170.4900
3237.0000;6177.8950
3238.0000;6182.1210
3239.0000;6165.9580
3240.0000;6165.0680
3241.0000;6190.3830
3242.0000;6196.3700
3243.0000;6178.7920
3244.0000;6174.2740
3245.0000;6175.5560
3246.0000;6162.9390
3247.0000;6157.9980
3248.0000;6175.4470
3249.0000;6175.6360
3250.0000;6148.1310
3251.0000;6148.8310
3252.0000;6175.1470
3253.0000;6169.1500
3254.0000;6148.7800
3255.0000;6148.0130
3256.0000;6159.0020
3257.0000;6173.7130
3258.0000;6186.8630
3259.0000;6192.5760
3260.0000;6189.4770
3261.0000;6181.9750
3262.0000;6189.4880
3263.0000;6199.7370
3264.0000;6194.8010
3265.0000;6185.1840
3266.0000;6179.7110
3267.0000;6187.7040
3268.0000;6204.9000
3269.0000;6197.1540
3270.0000;6174.2620
3271.0000;6178.7010
3272.0000;6189.5150
3273.0000;6179.6160
3274.0000;6167.3710
3275.0000;6162.1030
3276.0000;6148.1640
3277.0000;6130.5740
3278.0000;6127.8360
3279.0000;6141.7000
3280.0000;6160.2960
3281.0000;6176.3370
3282.0000;6181.1890
3283.0000;6179.7670
3284.0000;6175.0240
3285.0000;6165.9820
3286.0000;6155.9320
3287.0000;6149.3570
3288.0000;6146.4270
3289.0000;6143.0850
3290.0000;6133.9800
3291.0000;6116.1680
3292.0000;6098.1770
3293.0000;6089.4750
3294.0000;6101.7120
3295.0000;6120.0880
3296.0000;6106.5520
3297.0000;6086.7620
3298.0000;6088.2840
3299.0000;6088.8990
3300.0000;6080.6270
3301.0000;6069.9270
3302.0000;6061.1980
3303.0000;6055.0120
3304.0000;6055.2990
3305.0000;6060.3760
3306.0000;6067.0370
3307.0000;6071.2930
3308.0000;6084.5780
3309.0000;6103.4910
3310.0000;6111.9930
3311.0000;6105.7000
3312.0000;6092.8660
3313.0000;6074.7370
3314.0000;6057.3340
3315.0000;6049.9830
3316.0000;6053.7040
3317.0000;6041.4400
3318.0000;6022.4010
3319.0000;6025.2690
3320.0000;6036.4210
3321.0000;6033.6950
3322.0000;6031.0840
3323.0000;6034.4870
3324.0000;6042.3100
3325.0000;6049.2160
3326.0000;6042.6660
3327.0000;6030.2930
3328.0000;6029.2550
3329.0000;6024.0770
3330.0000;6007.4100
3331.0000;6005.5750
3332.0000;6021.0450
3333.0000;6027.2970
3334.0000;6028.1480
3335.0000;6037.9320
3336.0000;6047.6350
3337.0000;6052.5110
3338.0000;6056.1650
3339.0000;6057.8590
3340.0000;6054.1210
3341.0000;6045.8560
3342.0000;6035.1720
3343.0000;6031.8780
3344.0000;6042.1120
3345.0000;6049.1920
3346.0000;6045.7980
3347.0000;6040.4290
3348.0000;6037.6970
3349.0000;6044.2920
3350.0000;6056.9980
3351.0000;6069.1050
3352.0000;6083.4400
3353.0000;6096.9860
3354.0000;6102.4920
3355.0000;6098.6950
3356.0000;6098.0240
3357.0000;6095.6060
3358.0000;6088.9840
3359.0000;6086.0320
3360.0000;6090.1230
3361.0000;6093.9590
3362.0000;6097.2110
3363.0000;6103.8760
3364.0000;6110.6600
3365.0000;6116.4540
3366.0000;6107.8950
3367.0000;6083.8810
3368.0000;6064.1240
3369.0000;6058.7190
3370.0000;6064.4890
3371.0000;6078.0820
3372.0000;6086.6680
3373.0000;6096.1360
3374.0000;6104.6380
3375.0000;6092.4950
3376.0000;6072.9580
3377.0000;6094.9750
3378.0000;6120.6410
3379.0000;6106.3150
3380.0000;6085.7360
3381.0000;6075.3920
3382.0000;6051.6210
3383.0000;6029.8670
3384.0000;6040.1400
3385.0000;6060.8880
3386.0000;6060.2840
3387.0000;6057.8430
3388.0000;6060.1520
3389.0000;6066.0740
3390.0000;6070.5050
3391.0000;6064.8960
3392.0000;6054.6100
3393.0000;6047.0200
3394.0000;6049.7070
3395.0000;6061.3730
3396.0000;6058.0550
3397.0000;6045.7000
3398.0000;6046.5450
3399.0000;6045.7290
3400.0000;6033.2170
3401.0000;6020.1380
3402.0000;6013.4640
3403.0000;6010.9530
3404.0000;6018.9810
3405.0000;6039.3750
3406.0000;6057.5630
3407.0000;6060.6370
3408.0000;6060.2140
3409.0000;6055.2450
3410.0000;6036.9310
3411.0000;6023.1540
3412.0000;6035.2560
3413.0000;6043.2210
3414.0000;6032.4700
3415.0000;6039.3500
3416.0000;6053.5350
3417.0000;6029.0500
3418.0000;6001.3610
3419.0000;6007.8450
3420.0000;6027.7750
3421.0000;6046.0440
3422.0000;6045.0960
3423.0000;6033.4280
3424.0000;6045.3670
3425.0000;6054.3870
3426.0000;6041.7170
3427.0000;6016.7780
3428.0000;5994.3320
3429.0000;6001.6000
3430.0000;6025.3230
3431.0000;6028.7790
3432.0000;6040.0840
3433.0000;6067.0950
3434.0000;6074.4840
3435.0000;6060.8330
3436.0000;6057.7510
3437.0000;6056.4680
3438.0000;6050.3800
3439.0000;6047.2210
3440.0000;6049.9530
3441.0000;6055.5350
3442.0000;6062.6240
3443.0000;6070.5920
3444.0000;6072.1110
3445.0000;6064.5740
3446.0000;6059.9020
3447.0000;6063.3060
3448.0000;6074.4620
3449.0000;6085.7580
3450.0000;6088.1430
3451.0000;6078.4260
3452.0000;6061.2820
3453.0000;6057.1120
3454.0000;6064.4000
3455.0000;6062.9880
3456.0000;6062.8610
3457.0000;6068.6940
3458.0000;6074.9290
3459.0000;6074.8030
3460.0000;6055.0730
3461.0000;6035.5820
3462.0000;6043.1140
3463.0000;6052.6640
3464.0000;6052.5410
3465.0000;6060.9190
3466.0000;6073.0000
3467.0000;6080.2520
3468.0000;6077.4380
3469.0000;6065.3480
3470.0000;6059.8140
3471.0000;6059.3200
3472.0000;6034.5270
3473.0000;6011.1410
3474.0000;6016.7970
3475.0000;6034.2820
3476.0000;6050.6170
3477.0000;6059.7560
3478.0000;6057.6100
3479.0000;6050.3440
3480.0000;6043.5130
3481.0000;6044.2580
3482.0000;6054.4370
3483.0000;6065.9780
3484.0000;6056.8170
3485.0000;6049.3300
3486.0000;6069.3100
3487.0000;6064.4870
3488.0000;6029.4380
3489.0000;6018.7570
3490.0000;6036.8360
3491.0000;6068.5900
3492.0000;6084.7650
3493.0000;6070.0370
3494.0000;6070.3820
3495.0000;6081.3000
3496.0000;6075.8350
3497.0000;6063.9580
3498.0000;6055.1510
3499.0000;6060.8510
3500.0000;6076.3430
3501.0000;6072.5730
3502.0000;6063.0330
3503.0000;6066.1560
3504.0000;6065.0430
3505.0000;6059.8120
3506.0000;6078.3780
3507.0000;6101.1570
3508.0000;6095.9890
3509.0000;6076.7560
3510.0000;6057.4430
3511.0000;6050.2750
3512.0000;6052.0090
3513.0000;6035.1530
3514.0000;6031.4510
3515.0000;6055.7710
3516.0000;6065.7200
3517.0000;6057.7280
3518.0000;6064.2120
3519.0000;6067.2310
3520.0000;6053.7990
3521.0000;6053.7130
3522.0000;6069.9230
3523.0000;6074.6990
3524.0000;6074.6730
3525.0000;6081.8310
3526.0000;6087.1180
3527.0000;6087.7030
3528.0000;6089.7000
3529.0000;6086.3070
3530.0000;6067.4010
3531.0000;6068.0200
3532.0000;6097.3620
3533.0000;6105.3340
3534.0000;6090.3570
3535.0000;6077.0170
3536.0000;6065.5190
3537.0000;6060.9890
3538.0000;6067.1190
3539.0000;6079.9000
3540.0000;6084.9170
3541.0000;6086.2900
3542.0000;6087.8040
3543.0000;6084.5870
3544.0000;6077.4470
3545.0000;6072.0820
3546.0000;6066.6790
3547.0000;6059.6130
3548.0000;6047.2900
3549.0000;6033.7910
3550.0000;6025.9640
3551.0000;6020.5490
3552.0000;6009.3070
3553.0000;6000.3740
3554.0000;5999.2790
3555.0000;6011.1230
3556.0000;6022.1900
3557.0000;6013.4080
3558.0000;6003.6350
3559.0000;5999.5820
3560.0000;5990.6190
3561.0000;5985.4960
3562.0000;5991.7160
3563.0000;5996.5040
3564.0000;5996.5250
3565.0000;6011.0740
3566.0000;6026.6980
3567.0000;6022.8140
3568.0000;6029.8170
3569.0000;6053.4430
3570.0000;6050.8790
3571.0000;6035.7700
3572.0000;6043.2460
3573.0000;6055.8280
3574.0000;6061.1980
3575.0000;6046.1280
3576.0000;6023.2250
3577.0000;6018.3080
3578.0000;6025.5530
3579.0000;6037.3340
3580.0000;6038.7480
3581.0000;6032.5370
3582.0000;6032.6350
3583.0000;6024.1850
3584.0000;6006.6110
3585.0000;6008.8680
3586.0000;6023.4820
3587.0000;6024.9630
3588.0000;6010.9840
3589.0000;5989.6960
3590.0000;6002.0210
3591.0000;6027.7330
3592.0000;6016.3450
3593.0000;6018.0450
3594.0000;6048.0350
3595.0000;6051.6000
3596.0000;6039.9200
3597.0000;6049.5690
3598.0000;6070.4430
3599.0000;6093.3850
3600.0000;6105.1460
3601.0000;6108.1440
3602.0000;6120.1450
3603.0000;6131.6690
3604.0000;6139.1610
3605.0000;6147.9790
3606.0000;6147.6320
3607.0000;6129.4610
3608.0000;6127.1590
3609.0000;6150.0770
3610.0000;6161.0300
3611.0000;6162.3730
3612.0000;6164.8310
3613.0000;6154.2550
3614.0000;6136.6170
3615.0000;6142.4200
3616.0000;6153.7290
3617.0000;6145.2020
3618.0000;6136.9490
3619.0000;6137.0580
3620.0000;6146.7840
3621.0000;6151.2000
3622.0000;6136.6850
3623.0000;6147.9680
3624.0000;6177.6040
3625.0000;6167.0560
3626.0000;6145.7910
3627.0000;6143.4490
3628.0000;6145.7220
3629.0000;6149.4000
3630.0000;6146.9270
3631.0000;6148.2140
3632.0000;6158.2790
3633.0000;6168.2290
3634.0000;6171.0640
3635.0000;6162.7950
3636.0000;6153.8200
3637.0000;6154.0810
3638.0000;6169.0610
3639.0000;6178.7910
3640.0000;6150.9150
3641.0000;6136.4510
3642.0000;6152.1740
3643.0000;6143.9760
3644.0000;6132.9930
3645.0000;6149.5760
3646.0000;6165.3000
3647.0000;6168.3070
3648.0000;6163.8230
3649.0000;6165.4750
3650.0000;6187.6300
3651.0000;6194.7140
3652.0000;6185.2350
3653.0000;6197.1560
3654.0000;6197.6310
3655.0000;6168.5990
3656.0000;6143.8910
3657.0000;6136.2090
3658.0000;6142.1220
3659.0000;6147.7930
3660.0000;6141.2410
3661.0000;6133.5060
3662.0000;6127.5690
3663.0000;6125.6020
3664.0000;6115.0430
3665.0000;6100.7860
3666.0000;6112.8280
3667.0000;6144.0100
3668.0000;6174.5810
3669.0000;6182.3410
3670.0000;6164.4510
3671.0000;6153.7000
3672.0000;6156.8900
3673.0000;6176.8550
3674.0000;6188.1400
3675.0000;6187.6100
3676.0000;6189.7280
3677.0000;6191.8220
3678.0000;6194.5280
3679.0000;6198.8820
3680.0000;6204.2810
3681.0000;6210.3820
3682.0000;6206.6760
3683.0000;6196.1290
3684.0000;6202.2990
3685.0000;6213.8240
3686.0000;6216.0960
3687.0000;6199.7420
3688.0000;6178.0140
3689.0000;6179.6760
3690.0000;6199.3700
3691.0000;6221.7750
3692.0000;6216.6110
3693.0000;6198.3270
3694.0000;6202.2270
3695.0000;6205.5830
3696.0000;6202.3490
3697.0000;6199.0660
3698.0000;6197.3030
3699.0000;6199.1840
3700.0000;6219.1200
3701.0000;6250.8650
3702.0000;6278.4370
3703.0000;6289.8000
3704.0000;6280.1050
3705.0000;6263.1070
3706.0000;6245.2210
3707.0000;6235.2060
3708.0000;6246.6790
3709.0000;6272.1750
3710.0000;6278.7500
3711.0000;6276.9340
3712.0000;6280.0840
3713.0000;6285.8550
3714.0000;6290.9750
3715.0000;6291.2190
3716.0000;6291.5170
3717.0000;6295.0240
3718.0000;6305.1130
3719.0000;6305.5340
3720.0000;6283.4570
3721.0000;6273.8600
3722.0000;6283.5710
3723.0000;6295.6640
3724.0000;6292.9720
3725.0000;6273.4820
3726.0000;6295.7410
3727.0000;6330.3360
3728.0000;6324.9860
3729.0000;6312.0980
3730.0000;6303.6190
3731.0000;6297.9180
3732.0000;6298.0290
3733.0000;6301.0830
3734.0000;6288.5660
3735.0000;6270.5250
3736.0000;6268.2490
3737.0000;6260.0350
3738.0000;6246.4510
3739.0000;6259.0780
3740.0000;6267.7700
3741.0000;6247.5770
3742.0000;6251.0160
3743.0000;6271.9360
3744.0000;6275.9790
3745.0000;6274.7050
3746.0000;6274.9860
3747.0000;6283.9740
3748.0000;6301.4630
3749.0000;6321.5280
3750.0000;6327.2060
3751.0000;6316.8290
3752.0000;6307.9630
3753.0000;6297.8170
3754.0000;6294.3840
3755.0000;6318.5070
3756.0000;6339.4150
3757.0000;6326.5850
3758.0000;6326.7800
3759.0000;6339.5000
3760.0000;6341.4920
3761.0000;6346.9570
3762.0000;6359.0110
3763.0000;6368.8390
3764.0000;6378.2890
3765.0000;6390.9530
3766.0000;6411.0330
3767.0000;6424.5620
3768.0000;6413.0220
3769.0000;6417.2180
3770.0000;6442.6010
3771.0000;6427.1550
3772.0000;6409.5330
3773.0000;6429.0280
3774.0000;6452.8120
3775.0000;6467.6190
3776.0000;6467.8840
3777.0000;6465.9730
3778.0000;6467.7420
3779.0000;6466.7430
3780.0000;6467.8140
3781.0000;6472.8980
3782.0000;6465.1600
3783.0000;6458.7080
3784.0000;6478.1000
3785.0000;6472.4940
3786.0000;6443.8470
3787.0000;6450.1180
3788.0000;6469.2290
3789.0000;6479.3770
3790.0000;6471.7300
3791.0000;6460.6670
3792.0000;6469.2120
3793.0000;6483.4960
3794.0000;6502.2230
3795.0000;6535.8330
3796.0000;6548.4420
3797.0000;6525.8180
3798.0000;6491.3330
3799.0000;6475.7380
3800.0000;6500.9220
3801.0000;6503.0620
3802.0000;6486.4120
3803.0000;6484.0590
3804.0000;6489.6970
3805.0000;6498.0270
3806.0000;6500.2240
3807.0000;6494.5870
3808.0000;6483.7470
3809.0000;6476.1120
3810.0000;6472.2330
3811.0000;6468.7840
3812.0000;6469.2130
3813.0000;6467.7740
3814.0000;6449.4360
3815.0000;6445.4050
3816.0000;6464.0950
3817.0000;6477.0490
3818.0000;6477.2270
3819.0000;6463.7150
3820.0000;6461.3730
3821.0000;6461.2040
3822.0000;6444.4640
3823.0000;6443.4770
3824.0000;6462.9380
3825.0000;6485.7080
3826.0000;6489.7590
3827.0000;6473.7150
3828.0000;6491.9920
3829.0000;6502.6590
3830.0000;6473.4660
3831.0000;6461.8810
3832.0000;6470.9700
3833.0000;6483.3790
3834.0000;6493.8030
3835.0000;6495.2960
3836.0000;6488.7440
3837.0000;6480.1480
3838.0000;6474.4080
3839.0000;6462.0560
3840.0000;6453.5560
3841.0000;6456.9680
3842.0000;6469.5650
3843.0000;6484.2080
3844.0000;6490.6970
3845.0000;6488.9640
3846.0000;6485.9390
3847.0000;6498.1780
3848.0000;6517.5080
3849.0000;6536.5230
3850.0000;6558.8350
3851.0000;6570.1540
3852.0000;6567.4090
3853.0000;6577.3910
3854.0000;6586.4460
3855.0000;6579.1100
3856.0000;6568.9350
3857.0000;6574.2360
3858.0000;6616.1550
3859.0000;6618.6550
3860.0000;6579.3000
3861.0000;6588.3750
3862.0000;6606.3620
3863.0000;6610.0740
3864.0000;6616.8480
3865.0000;6620.5290
3866.0000;6618.4940
3867.0000;6616.0710
3868.0000;6614.2200
3869.0000;6613.3270
3870.0000;6607.1170
3871.0000;6601.7070
3872.0000;6610.5720
3873.0000;6609.0400
3874.0000;6598.7970
3875.0000;6617.8920
3876.0000;6626.2690
3877.0000;6612.0530
3878.0000;6640.2070
3879.0000;6668.4760
3880.0000;6660.0950
3881.0000;6669.7410
3882.0000;6684.7500
3883.0000;6683.2550
3884.0000;6680.8330
3885.0000;6675.1950
3886.0000;6658.6070
3887.0000;6648.8240
3888.0000;6647.3970
3889.0000;6628.8180
3890.0000;6622.8810
3891.0000;6632.4280
3892.0000;6606.3630
3893.0000;6593.3960
3894.0000;6623.9330
3895.0000;6656.1750
3896.0000;6660.4760
3897.0000;6623.8350
3898.0000;6617.3410
3899.0000;6636.6860
3900.0000;6645.4340
3901.0000;6644.4610
3902.0000;6632.8850
3903.0000;6618.6090
3904.0000;6603.2460
3905.0000;6594.7200
3906.0000;6600.2640
3907.0000;6606.5500
3908.0000;6607.5060
3909.0000;6622.5430
3910.0000;6638.9610
3911.0000;6647.1380
3912.0000;6659.5540
3913.0000;6665.2190
3914.0000;6660.1030
3915.0000;6678.4230
3916.0000;6700.3840
3917.0000;6695.5780
3918.0000;6686.4600
3919.0000;6694.5120
3920.0000;6739.4420
3921.0000;6753.2690
3922.0000;6733.4260
3923.0000;6737.1530
3924.0000;6733.0910
3925.0000;6723.3960
3926.0000;6737.0260
3927.0000;6761.5840
3928.0000;6775.7710
3929.0000;6755.7280
3930.0000;6736.3150
3931.0000;6744.1720
3932.0000;6750.5060
3933.0000;6756.6260
3934.0000;6759.7890
3935.0000;6742.4960
3936.0000;6727.8920
3937.0000;6739.9530
3938.0000;6745.3250
3939.0000;6745.6770
3940.0000;6749.9760
3941.0000;6765.7410
3942.0000;6783.3910
3943.0000;6788.7670
3944.0000;6791.4530
3945.0000;6796.2230
3946.0000;6809.2570
3947.0000;6813.3760
3948.0000;6807.6840
3949.0000;6809.3120
3950.0000;6799.4920
3951.0000;6781.1320
3952.0000;6776.5050
3953.0000;6782.6330
3954.0000;6790.3750
3955.0000;6781.2350
3956.0000;6782.0310
3957.0000;6796.6740
3958.0000;6773.4460
3959.0000;6755.5600
3960.0000;6767.4030
3961.0000;6748.1220
3962.0000;6729.7290
3963.0000;6735.6230
3964.0000;6732.0500
3965.0000;6729.6440
3966.0000;6735.5590
3967.0000;6726.2630
3968.0000;6713.3230
3969.0000;6713.6990
3970.0000;6720.5640
3971.0000;6728.5450
3972.0000;6730.1060
3973.0000;6725.9070
3974.0000;6718.2980
3975.0000;6712.5750
3976.0000;6706.2030
3977.0000;6707.0550
3978.0000;6721.7410
3979.0000;6729.0420
3980.0000;6732.8130
3981.0000;6751.3670
3982.0000;6748.1300
3983.0000;6727.9560
3984.0000;6724.3660
3985.0000;6732.0300
3986.0000;6749.1460
3987.0000;6771.3530
3988.0000;6763.8190
3989.0000;6737.6770
3990.0000;6747.8680
3991.0000;6765.4810
3992.0000;6773.5640
3993.0000;6764.1060
3994.0000;6759.3020
3995.0000;6770.2100
3996.0000;6792.4200
3997.0000;6804.3380
3998.0000;6805.2120
3999.0000;6828.8290
4000.0000;6830.6820
4001.0000;6811.0730
4002.0000;6825.6890
4003.0000;6837.1410
4004.0000;6833.7620
4005.0000;6838.4050
4006.0000;6843.6840
4007.0000;6846.0450
4008.0000;6844.6850
4009.0000;6842.4670
4010.0000;6846.8720
4011.0000;6871.0920
4012.0000;6880.6550
4013.0000;6872.4920
4014.0000;6899.7470
4015.0000;6903.7320
4016.0000;6876.9630
4017.0000;6884.2740
4018.0000;6895.2990
4019.0000;6897.9820
4020.0000;6907.9160
4021.0000;6902.1640
4022.0000;6881.3110
4023.0000;6867.1630
4024.0000;6888.3490
4025.0000;6925.6910
4026.0000;6903.3260
4027.0000;6882.8570
4028.0000;6887.2300
4029.0000;6888.5980
4030.0000;6868.1860
4031.0000;6838.3790
4032.0000;6843.2590
4033.0000;6859.4650
4034.0000;6870.1730
4035.0000;6867.5600
4036.0000;6872.1060
4037.0000;6880.8880
4038.0000;6871.3370
4039.0000;6865.4480
4040.0000;6866.5290
4041.0000;6861.8170
4042.0000;6859.4650
4043.0000;6865.5640
4044.0000;6883.0290
4045.0000;6874.8410
4046.0000;6860.4460
4047.0000;6892.0670
4048.0000;6917.1790
4049.0000;6919.5250
4050.0000;6906.4350
4051.0000;6898.2710
4052.0000;6902.9820
4053.0000;6916.1020
4054.0000;6920.9560
4055.0000;6911.9260
4056.0000;6896.2490
4057.0000;6913.1540
4058.0000;6937.9510
4059.0000;6932.4800
4060.0000;6928.9160
4061.0000;6928.4740
4062.0000;6932.1830
4063.0000;6955.3940
4064.0000;6965.2570
4065.0000;6942.3750
4066.0000;6945.6670
4067.0000;6956.0450
4068.0000;6956.8290
4069.0000;6966.5050
4070.0000;6979.7500
4071.0000;6987.3410
4072.0000;6974.9760
4073.0000;6970.7470
4074.0000;6981.8630
4075.0000;6975.0410
4076.0000;6949.9370
4077.0000;6921.3600
4078.0000;6914.8520
4079.0000;6906.7240
4080.0000;6896.8050
4081.0000;6903.0270
4082.0000;6898.5390
4083.0000;6881.6420
4084.0000;6867.6300
4085.0000;6851.1760
4086.0000;6842.0420
4087.0000;6846.7300
4088.0000;6832.5280
4089.0000;6819.4370
4090.0000;6834.2140
4091.0000;6859.8920
4092.0000;6866.0250
4093.0000;6836.3760
4094.0000;6814.5630
4095.0000;6827.0700
4096.0000;6864.5430
4097.0000;6835.4270
4098.0000;6812.9600
4099.0000;6836.1110
4100.0000;6843.9120
4101.0000;6856.9880
4102.0000;6868.0090
4103.0000;6850.2870
4104.0000;6821.6400
4105.0000;6799.4800
4106.0000;6792.7490
4107.0000;6767.8520
4108.0000;6734.4610
4109.0000;6716.0930
4110.0000;6663.8410
4111.0000;6602.1840
4112.0000;6566.1600
4113.0000;6503.8150
4114.0000;6452.0540
4115.0000;6428.6290
4116.0000;6343.2790
4117.0000;6272.3800
4118.0000;6246.2000
4119.0000;6164.7190
4120.0000;6097.6710
4121.0000;6062.3330
4122.0000;6012.5900
4123.0000;5945.0360
4124.0000;5870.1760
4125.0000;5801.9340
4126.0000;5718.4330
4127.0000;5643.5550
4128.0000;5594.8540
4129.0000;5522.6320
4130.0000;5439.7800
4131.0000;5364.1350
4132.0000;5295.0600
4133.0000;5225.7310
4134.0000;5148.7640
4135.0000;5075.2370
4136.0000;4991.8290
4137.0000;4898.8300
4138.0000;4806.0310
4139.0000;4706.9420
4140.0000;4615.9520
4141.0000;4539.3430
4142.0000;4445.8540
4143.0000;4361.3940
4144.0000;4304.5700
4145.0000;4214.7570
4146.0000;4128.0350
4147.0000;4072.2870
4148.0000;4009.3360
4149.0000;3961.2890
4150.0000;3922.5490
4151.0000;3849.4170
4152.0000;3793.8070
4153.0000;3762.6050
4154.0000;3712.1240
4155.0000;3659.0860
4156.0000;3615.9800
4157.0000;3585.5790
4158.0000;3547.4280
4159.0000;3493.7520
4160.0000;3429.3840
4161.0000;3392.3620
4162.0000;3366.1730
4163.0000;3337.1450
4164.0000;3311.8940
4165.0000;3289.3970
4166.0000;3270.9490
4167.0000;3254.0350
4168.0000;3222.6840
4169.0000;3197.5600
4170.0000;3200.2760
4171.0000;3192.4730
4172.0000;3185.8350
4173.0000;3186.0510
4174.0000;3175.2920
4175.0000;3165.1570
4176.0000;3158.6590
4177.0000;3146.2120
4178.0000;3126.5810
4179.0000;3104.2560
4180.0000;3086.2480
4181.0000;3083.8070
4182.0000;3086.0490
4183.0000;3076.5430
4184.0000;3059.9370
4185.0000;3051.1150
4186.0000;3056.2390
4187.0000;3060.5560
4188.0000;3064.9860
4189.0000;3071.0840
4190.0000;3081.9830
4191.0000;3089.8940
4192.0000;3099.8610
4193.0000;3115.7640
4194.0000;3122.1360
4195.0000;3116.9730
4196.0000;3104.9630
4197.0000;3093.2240
4198.0000;3075.5750
4199.0000;3062.6800
4200.0000;3067.8710
4201.0000;3048.8500
4202.0000;3036.0280
4203.0000;3056.9390
4204.0000;3060.6360
4205.0000;3060.6320
4206.0000;3062.0240
4207.0000;3052.6790
4208.0000;3063.9460
4209.0000;3084.7270
4210.0000;3082.4110
4211.0000;3074.5630
4212.0000;3070.7200
4213.0000;3077.8290
4214.0000;3095.9750
4215.0000;3081.1210
4216.0000;3041.8700
4217.0000;3046.0380
4218.0000;3048.7440
4219.0000;3050.3510
4220.0000;3062.5650
4221.0000;3066.9260
4222.0000;3072.6080
4223.0000;3081.4630
4224.0000;3072.0900
4225.0000;3057.9200
4226.0000;3049.9540
4227.0000;3049.8160
4228.0000;3040.4660
4229.0000;3027.8990
4230.0000;3024.9640
4231.0000;3044.3740
4232.0000;3055.5440
4233.0000;3046.7210
4234.0000;3044.4040
4235.0000;3049.4830
4236.0000;2746.5310
4237.0000;1924.7070
4238.0000;1014.7970
