Raman Shift ; Dark Subtracted #1
-2.0000;7414.4990
-1.0000;7141.8820
0.0000;6637.4090
1.0000;5871.9680
2.0000;4862.8630
3.0000;3695.1640
4.0000;2600.3340
5.0000;1656.3610
6.0000;985.4501
7.0000;677.9968
8.0000;461.2572
9.0000;358.4933
10.0000;418.5147
11.0000;412.7086
12.0000;256.7331
13.0000;100.8151
14.0000;-10.0211
15.0000;-41.4723
16.0000;-12.9435
17.0000;13.3499
18.0000;8.3277
19.0000;3.5661
20.0000;0.6643
21.0000;0.5343
22.0000;3.2672
23.0000;7.4512
24.0000;12.9087
25.0000;17.8442
26.0000;20.2815
27.0000;17.7406
28.0000;12.3484
29.0000;8.2247
30.0000;8.5441
31.0000;11.6508
32.0000;15.6378
33.0000;19.6263
34.0000;22.8909
35.0000;24.2108
36.0000;22.4047
37.0000;18.4097
38.0000;14.6781
39.0000;14.1185
40.0000;15.4362
41.0000;16.7605
42.0000;15.9038
43.0000;14.1824
44.0000;12.6886
45.0000;12.7594
46.0000;13.6656
47.0000;14.0521
48.0000;12.4217
49.0000;9.5372
50.0000;6.5828
51.0000;3.2473
52.0000;1.1657
53.0000;2.0143
54.0000;7.7498
55.0000;17.3179
56.0000;26.5029
57.0000;31.9272
58.0000;32.7452
59.0000;31.2345
60.0000;28.8784
61.0000;26.0479
62.0000;26.6823
63.0000;36.1131
64.0000;52.2065
65.0000;68.9213
66.0000;79.2190
67.0000;83.0328
68.0000;88.5442
69.0000;105.8332
70.0000;131.3252
71.0000;158.9341
72.0000;185.7647
73.0000;207.3362
74.0000;226.6307
75.0000;252.2586
76.0000;277.0498
77.0000;300.9993
78.0000;329.9590
79.0000;357.9781
80.0000;384.0918
81.0000;413.4658
82.0000;440.3566
83.0000;467.5759
84.0000;503.6799
85.0000;543.0129
86.0000;581.2483
87.0000;622.2883
88.0000;658.5919
89.0000;693.1346
90.0000;736.6343
91.0000;782.4880
92.0000;826.5054
93.0000;876.1248
94.0000;922.9151
95.0000;967.2273
96.0000;1019.7020
97.0000;1072.9090
98.0000;1121.4490
99.0000;1175.6220
100.0000;1227.7860
101.0000;1270.5800
102.0000;1318.2220
103.0000;1362.3070
104.0000;1400.8770
105.0000;1445.4540
106.0000;1490.0760
107.0000;1530.1020
108.0000;1577.6220
109.0000;1622.8940
110.0000;1662.6830
111.0000;1706.6760
112.0000;1749.3170
113.0000;1786.1020
114.0000;1832.3430
115.0000;1882.4710
116.0000;1927.6550
117.0000;1970.3760
118.0000;2004.0870
119.0000;2029.8340
120.0000;2062.5570
121.0000;2099.0560
122.0000;2131.4680
123.0000;2162.6930
124.0000;2188.0620
125.0000;2207.7630
126.0000;2231.1020
127.0000;2255.4830
128.0000;2279.8780
129.0000;2312.7060
130.0000;2351.5700
131.0000;2385.1920
132.0000;2407.5880
133.0000;2412.8540
134.0000;2411.3450
135.0000;2423.8700
136.0000;2451.6290
137.0000;2483.2490
138.0000;2511.6550
139.0000;2533.0600
140.0000;2547.1920
141.0000;2562.1840
142.0000;2575.5690
143.0000;2585.2720
144.0000;2598.8830
145.0000;2613.8410
146.0000;2626.5860
147.0000;2638.2980
148.0000;2645.7800
149.0000;2651.6430
150.0000;2662.6250
151.0000;2678.2860
152.0000;2691.8910
153.0000;2702.4880
154.0000;2707.2920
155.0000;2706.9440
156.0000;2705.7080
157.0000;2703.0200
158.0000;2700.1860
159.0000;2700.7030
160.0000;2705.1530
161.0000;2711.3070
162.0000;2717.5760
163.0000;2722.8440
164.0000;2728.1080
165.0000;2734.1640
166.0000;2740.3610
167.0000;2746.7190
168.0000;2757.0210
169.0000;2768.7660
170.0000;2777.4160
171.0000;2777.4010
172.0000;2767.8710
173.0000;2760.8070
174.0000;2770.3840
175.0000;2796.2770
176.0000;2823.2200
177.0000;2840.7110
178.0000;2844.5320
179.0000;2842.1660
180.0000;2843.4760
181.0000;2845.8450
182.0000;2848.3170
183.0000;2852.1990
184.0000;2857.0240
185.0000;2863.3920
186.0000;2875.2280
187.0000;2888.8110
188.0000;2898.8700
189.0000;2899.8350
190.0000;2891.4510
191.0000;2881.6740
192.0000;2880.2060
193.0000;2885.3650
194.0000;2893.0750
195.0000;2898.7420
196.0000;2903.3250
197.0000;2907.9120
198.0000;2914.9340
199.0000;2922.0040
200.0000;2926.9440
201.0000;2929.1620
202.0000;2927.6160
203.0000;2924.8640
204.0000;2923.0760
205.0000;2922.2890
206.0000;2924.2390
207.0000;2930.7530
208.0000;2940.6070
209.0000;2950.1260
210.0000;2958.4720
211.0000;2962.5870
212.0000;2962.2820
213.0000;2954.8890
214.0000;2944.5300
215.0000;2939.6000
216.0000;2950.0200
217.0000;2969.1660
218.0000;2986.1620
219.0000;2992.2280
220.0000;2991.8650
221.0000;2993.9260
222.0000;3007.3580
223.0000;3023.1150
224.0000;3034.6570
225.0000;3037.0440
226.0000;3032.8690
227.0000;3029.3990
228.0000;3032.6740
229.0000;3037.4490
230.0000;3040.6130
231.0000;3038.4370
232.0000;3036.9790
233.0000;3043.3750
234.0000;3062.6570
235.0000;3086.1830
236.0000;3105.5310
237.0000;3116.9040
238.0000;3120.4980
239.0000;3122.4960
240.0000;3124.0490
241.0000;3123.5970
242.0000;3124.8370
243.0000;3128.7750
244.0000;3133.9310
245.0000;3141.0040
246.0000;3149.8180
247.0000;3156.1470
248.0000;3156.6450
249.0000;3149.3830
250.0000;3140.6890
251.0000;3137.7220
252.0000;3142.6710
253.0000;3150.1860
254.0000;3154.5830
255.0000;3155.0790
256.0000;3154.9930
257.0000;3157.8280
258.0000;3162.9910
259.0000;3168.3070
260.0000;3172.7830
261.0000;3175.3750
262.0000;3176.7290
263.0000;3177.2480
264.0000;3176.8180
265.0000;3178.1230
266.0000;3185.2180
267.0000;3196.0440
268.0000;3205.8930
269.0000;3210.4090
270.0000;3209.8610
271.0000;3209.5650
272.0000;3215.3850
273.0000;3224.3540
274.0000;3234.4120
275.0000;3245.5810
276.0000;3255.0220
277.0000;3262.0000
278.0000;3266.4140
279.0000;3267.3780
280.0000;3269.8340
281.0000;3279.1190
282.0000;3289.9490
283.0000;3299.5290
284.0000;3306.0690
285.0000;3309.0110
286.0000;3311.5440
287.0000;3316.1700
288.0000;3319.2820
289.0000;3320.2160
290.0000;3316.9000
291.0000;3314.3280
292.0000;3319.2880
293.0000;3335.5600
294.0000;3354.3370
295.0000;3367.4540
296.0000;3370.3100
297.0000;3366.8290
298.0000;3363.8710
299.0000;3362.2680
300.0000;3361.7810
301.0000;3364.2540
302.0000;3370.0070
303.0000;3378.3990
304.0000;3389.8680
305.0000;3402.8030
306.0000;3413.1740
307.0000;3417.7310
308.0000;3414.8440
309.0000;3411.8230
310.0000;3419.4810
311.0000;3433.6830
312.0000;3444.8470
313.0000;3443.6530
314.0000;3431.8120
315.0000;3421.2630
316.0000;3422.5780
317.0000;3432.2740
318.0000;3443.9800
319.0000;3451.6560
320.0000;3456.8890
321.0000;3462.4810
322.0000;3472.2090
323.0000;3481.3910
324.0000;3489.1390
325.0000;3494.1690
326.0000;3496.2220
327.0000;3498.8930
328.0000;3504.3140
329.0000;3510.3470
330.0000;3518.6010
331.0000;3530.4310
332.0000;3540.2950
333.0000;3543.2890
334.0000;3536.0840
335.0000;3526.9050
336.0000;3527.6450
337.0000;3542.1010
338.0000;3560.0450
339.0000;3572.7430
340.0000;3576.8110
341.0000;3575.0600
342.0000;3571.0280
343.0000;3564.3100
344.0000;3561.1570
345.0000;3569.9210
346.0000;3589.6860
347.0000;3608.1280
348.0000;3615.8310
349.0000;3612.2060
350.0000;3605.6980
351.0000;3606.5380
352.0000;3609.9390
353.0000;3611.6230
354.0000;3604.8120
355.0000;3596.1320
356.0000;3595.4850
357.0000;3615.3790
358.0000;3641.9720
359.0000;3659.2580
360.0000;3652.4690
361.0000;3633.7280
362.0000;3621.0920
363.0000;3626.7910
364.0000;3639.9870
365.0000;3651.7280
366.0000;3656.8580
367.0000;3658.5870
368.0000;3659.3590
369.0000;3659.0520
370.0000;3658.5050
371.0000;3660.7470
372.0000;3666.2430
373.0000;3672.6440
374.0000;3678.8910
375.0000;3683.6580
376.0000;3687.9400
377.0000;3693.2810
378.0000;3698.4870
379.0000;3703.2150
380.0000;3709.7400
381.0000;3715.3220
382.0000;3719.1010
383.0000;3720.0820
384.0000;3718.6810
385.0000;3719.4000
386.0000;3728.6660
387.0000;3740.1150
388.0000;3748.6730
389.0000;3749.4030
390.0000;3744.9330
391.0000;3741.4060
392.0000;3742.0270
393.0000;3744.7420
394.0000;3748.7620
395.0000;3753.0490
396.0000;3759.2670
397.0000;3769.3310
398.0000;3784.0100
399.0000;3796.0890
400.0000;3799.0460
401.0000;3790.5890
402.0000;3782.8150
403.0000;3790.6320
404.0000;3813.3010
405.0000;3836.4000
406.0000;3850.2050
407.0000;3852.3710
408.0000;3850.0640
409.0000;3851.5300
410.0000;3853.0820
411.0000;3856.2640
412.0000;3866.4250
413.0000;3877.0160
414.0000;3880.1890
415.0000;3866.8630
416.0000;3847.5810
417.0000;3839.4720
418.0000;3854.4400
419.0000;3879.9990
420.0000;3899.0100
421.0000;3902.4200
422.0000;3898.6190
423.0000;3897.9470
424.0000;3902.1760
425.0000;3907.2150
426.0000;3911.5840
427.0000;3914.5180
428.0000;3917.6640
429.0000;3924.6570
430.0000;3933.6490
431.0000;3940.5530
432.0000;3944.0420
433.0000;3942.3050
434.0000;3937.8150
435.0000;3932.4550
436.0000;3926.9360
437.0000;3925.0140
438.0000;3929.6080
439.0000;3938.7440
440.0000;3948.5390
441.0000;3956.2430
442.0000;3961.0100
443.0000;3963.5450
444.0000;3964.2660
445.0000;3961.1070
446.0000;3954.1940
447.0000;3943.1260
448.0000;3935.0940
449.0000;3936.7870
450.0000;3950.8720
451.0000;3968.9730
452.0000;3980.8930
453.0000;3985.7870
454.0000;3990.4400
455.0000;4003.1640
456.0000;4019.8090
457.0000;4037.1530
458.0000;4056.4800
459.0000;4071.8390
460.0000;4082.3540
461.0000;4088.9600
462.0000;4089.9190
463.0000;4094.1680
464.0000;4107.4100
465.0000;4123.8870
466.0000;4141.2450
467.0000;4156.3030
468.0000;4172.0530
469.0000;4195.0650
470.0000;4225.6620
471.0000;4256.9820
472.0000;4290.8880
473.0000;4320.6450
474.0000;4342.4890
475.0000;4361.9380
476.0000;4371.1440
477.0000;4374.6840
478.0000;4385.1480
479.0000;4393.2040
480.0000;4396.0000
481.0000;4396.5600
482.0000;4389.0520
483.0000;4374.1330
484.0000;4352.6330
485.0000;4326.4530
486.0000;4297.3260
487.0000;4266.6420
488.0000;4243.5860
489.0000;4229.5730
490.0000;4229.6500
491.0000;4237.2250
492.0000;4236.3830
493.0000;4227.4860
494.0000;4217.7330
495.0000;4209.6220
496.0000;4205.4400
497.0000;4206.2490
498.0000;4212.7050
499.0000;4224.0480
500.0000;4234.0000
501.0000;4236.4380
502.0000;4234.1380
503.0000;4233.2580
504.0000;4238.5840
505.0000;4245.6390
506.0000;4251.7690
507.0000;4255.1720
508.0000;4256.8930
509.0000;4260.3410
510.0000;4265.6540
511.0000;4267.9030
512.0000;4263.1170
513.0000;4251.1170
514.0000;4239.1540
515.0000;4234.1080
516.0000;4236.5530
517.0000;4241.8070
518.0000;4243.4370
519.0000;4244.7110
520.0000;4247.1570
521.0000;4250.4370
522.0000;4256.0140
523.0000;4266.3700
524.0000;4284.6560
525.0000;4302.6180
526.0000;4315.1740
527.0000;4318.0110
528.0000;4315.8310
529.0000;4318.8490
530.0000;4326.8820
531.0000;4334.4300
532.0000;4337.9940
533.0000;4337.2400
534.0000;4337.3810
535.0000;4344.2340
536.0000;4355.1140
537.0000;4367.0000
538.0000;4378.6580
539.0000;4387.9070
540.0000;4397.0250
541.0000;4407.1200
542.0000;4415.6150
543.0000;4424.6450
544.0000;4434.3250
545.0000;4442.2220
546.0000;4450.8200
547.0000;4458.0520
548.0000;4462.1060
549.0000;4463.5370
550.0000;4461.2300
551.0000;4459.1790
552.0000;4464.1210
553.0000;4472.3360
554.0000;4476.8000
555.0000;4469.7450
556.0000;4458.0350
557.0000;4453.6120
558.0000;4465.6520
559.0000;4483.3690
560.0000;4492.2480
561.0000;4486.0280
562.0000;4473.4470
563.0000;4465.4660
564.0000;4463.9710
565.0000;4466.9890
566.0000;4472.6510
567.0000;4481.4590
568.0000;4490.1450
569.0000;4498.4430
570.0000;4502.9750
571.0000;4501.4690
572.0000;4491.0450
573.0000;4476.4870
574.0000;4466.5170
575.0000;4466.9960
576.0000;4474.4380
577.0000;4482.8740
578.0000;4489.9300
579.0000;4495.4700
580.0000;4497.6320
581.0000;4495.4460
582.0000;4492.0930
583.0000;4490.8280
584.0000;4492.3300
585.0000;4498.2350
586.0000;4512.9750
587.0000;4530.4110
588.0000;4543.4620
589.0000;4547.2020
590.0000;4540.9760
591.0000;4530.0070
592.0000;4514.7340
593.0000;4501.2390
594.0000;4495.9820
595.0000;4502.8030
596.0000;4516.2700
597.0000;4527.4590
598.0000;4536.4780
599.0000;4544.2970
600.0000;4555.8880
601.0000;4564.7370
602.0000;4567.1560
603.0000;4558.2260
604.0000;4543.8710
605.0000;4535.5170
606.0000;4540.5880
607.0000;4554.6670
608.0000;4571.1460
609.0000;4588.5520
610.0000;4602.7930
611.0000;4610.3640
612.0000;4608.9930
613.0000;4606.3940
614.0000;4614.4130
615.0000;4628.1960
616.0000;4639.7580
617.0000;4642.7770
618.0000;4640.6920
619.0000;4642.6420
620.0000;4652.9870
621.0000;4669.9060
622.0000;4695.2830
623.0000;4727.4500
624.0000;4760.5490
625.0000;4796.3960
626.0000;4827.4110
627.0000;4852.6260
628.0000;4881.8320
629.0000;4905.2960
630.0000;4926.1360
631.0000;4963.8520
632.0000;4994.0000
633.0000;5004.8030
634.0000;4988.8890
635.0000;4951.8540
636.0000;4917.6930
637.0000;4898.1340
638.0000;4881.9910
639.0000;4856.3480
640.0000;4825.5830
641.0000;4800.5100
642.0000;4780.9310
643.0000;4773.8310
644.0000;4771.3040
645.0000;4758.1310
646.0000;4747.7540
647.0000;4745.9770
648.0000;4758.6760
649.0000;4776.4380
650.0000;4783.1510
651.0000;4771.7090
652.0000;4756.5560
653.0000;4754.9890
654.0000;4768.1190
655.0000;4781.5220
656.0000;4783.2020
657.0000;4774.5000
658.0000;4763.6000
659.0000;4758.2960
660.0000;4755.0740
661.0000;4750.6260
662.0000;4741.9190
663.0000;4734.4920
664.0000;4730.8470
665.0000;4732.8810
666.0000;4738.5840
667.0000;4745.0140
668.0000;4750.9490
669.0000;4753.3990
670.0000;4745.4170
671.0000;4732.4670
672.0000;4728.4350
673.0000;4748.1120
674.0000;4776.8450
675.0000;4794.8110
676.0000;4789.9120
677.0000;4774.6150
678.0000;4766.2690
679.0000;4767.9360
680.0000;4771.8810
681.0000;4771.8600
682.0000;4769.2320
683.0000;4767.9470
684.0000;4770.6720
685.0000;4776.5590
686.0000;4783.8290
687.0000;4792.6280
688.0000;4799.0390
689.0000;4799.7160
690.0000;4792.0780
691.0000;4782.7480
692.0000;4779.9730
693.0000;4785.2960
694.0000;4794.9480
695.0000;4807.4750
696.0000;4819.7140
697.0000;4825.5970
698.0000;4817.0640
699.0000;4802.7880
700.0000;4799.4640
701.0000;4817.8660
702.0000;4843.2860
703.0000;4859.5490
704.0000;4860.1690
705.0000;4857.3670
706.0000;4865.0390
707.0000;4879.3280
708.0000;4894.0620
709.0000;4908.8130
710.0000;4917.9710
711.0000;4920.2230
712.0000;4914.3850
713.0000;4901.9940
714.0000;4890.7940
715.0000;4884.6640
716.0000;4881.6190
717.0000;4877.8330
718.0000;4875.7990
719.0000;4878.8710
720.0000;4888.1690
721.0000;4903.0960
722.0000;4920.0340
723.0000;4936.3880
724.0000;4948.5340
725.0000;4957.0520
726.0000;4960.6590
727.0000;4957.6720
728.0000;4951.2320
729.0000;4941.7180
730.0000;4935.8590
731.0000;4943.0670
732.0000;4959.3050
733.0000;4971.6950
734.0000;4968.7020
735.0000;4956.4530
736.0000;4944.2930
737.0000;4936.1880
738.0000;4933.5650
739.0000;4938.4730
740.0000;4951.7500
741.0000;4963.7630
742.0000;4959.4690
743.0000;4944.6300
744.0000;4937.0000
745.0000;4954.6390
746.0000;4984.2300
747.0000;5009.7490
748.0000;5021.8480
749.0000;5023.3690
750.0000;5024.8850
751.0000;5025.3940
752.0000;5018.4230
753.0000;4999.5630
754.0000;4973.6940
755.0000;4955.4000
756.0000;4957.2830
757.0000;4974.8280
758.0000;4992.7360
759.0000;5001.3160
760.0000;5004.9050
761.0000;5005.8840
762.0000;5003.3310
763.0000;5000.5130
764.0000;5002.9360
765.0000;5009.7160
766.0000;5018.4000
767.0000;5026.3980
768.0000;5033.8090
769.0000;5043.0780
770.0000;5055.8360
771.0000;5064.3610
772.0000;5061.9960
773.0000;5046.7850
774.0000;5032.4310
775.0000;5037.0250
776.0000;5057.1420
777.0000;5075.2000
778.0000;5075.4540
779.0000;5067.4980
780.0000;5066.2310
781.0000;5081.7280
782.0000;5098.1150
783.0000;5101.9410
784.0000;5089.3780
785.0000;5074.2660
786.0000;5071.2930
787.0000;5079.2220
788.0000;5091.4900
789.0000;5102.4870
790.0000;5114.3040
791.0000;5129.7200
792.0000;5148.2530
793.0000;5164.6860
794.0000;5177.8480
795.0000;5184.3880
796.0000;5184.1280
797.0000;5182.3010
798.0000;5175.8670
799.0000;5167.8240
800.0000;5158.2710
801.0000;5152.0830
802.0000;5153.2710
803.0000;5164.5250
804.0000;5180.3170
805.0000;5192.6370
806.0000;5198.8360
807.0000;5200.7760
808.0000;5200.9410
809.0000;5197.6750
810.0000;5195.4520
811.0000;5197.6420
812.0000;5201.6260
813.0000;5205.1820
814.0000;5207.5890
815.0000;5208.5790
816.0000;5206.9040
817.0000;5203.6160
818.0000;5204.6560
819.0000;5216.7100
820.0000;5234.0710
821.0000;5246.9400
822.0000;5248.4200
823.0000;5245.5670
824.0000;5251.0580
825.0000;5265.0060
826.0000;5276.4360
827.0000;5274.6660
828.0000;5262.5250
829.0000;5252.7310
830.0000;5258.6490
831.0000;5270.5560
832.0000;5276.4110
833.0000;5270.6120
834.0000;5262.3910
835.0000;5262.0320
836.0000;5269.3880
837.0000;5277.7290
838.0000;5281.5130
839.0000;5280.8630
840.0000;5277.5280
841.0000;5271.4420
842.0000;5265.3160
843.0000;5264.1490
844.0000;5269.6060
845.0000;5275.7410
846.0000;5275.6610
847.0000;5269.7970
848.0000;5262.2080
849.0000;5255.8790
850.0000;5250.7070
851.0000;5245.8150
852.0000;5240.2990
853.0000;5240.6650
854.0000;5252.1420
855.0000;5273.4940
856.0000;5293.6990
857.0000;5300.6240
858.0000;5295.7890
859.0000;5291.5660
860.0000;5296.6080
861.0000;5304.0890
862.0000;5311.3970
863.0000;5316.8750
864.0000;5319.6280
865.0000;5319.5780
866.0000;5315.8240
867.0000;5311.2640
868.0000;5306.5950
869.0000;5305.0580
870.0000;5310.3190
871.0000;5324.4700
872.0000;5341.7420
873.0000;5355.2630
874.0000;5362.6880
875.0000;5369.1430
876.0000;5382.4780
877.0000;5396.2200
878.0000;5407.4110
879.0000;5414.2330
880.0000;5416.3680
881.0000;5420.7340
882.0000;5427.0220
883.0000;5429.3340
884.0000;5423.3830
885.0000;5411.3970
886.0000;5403.1750
887.0000;5407.1410
888.0000;5417.3180
889.0000;5424.1840
890.0000;5423.8590
891.0000;5421.1620
892.0000;5419.1460
893.0000;5419.0510
894.0000;5425.2000
895.0000;5442.1880
896.0000;5464.8420
897.0000;5486.1630
898.0000;5501.0450
899.0000;5510.9730
900.0000;5524.7670
901.0000;5538.4950
902.0000;5546.8870
903.0000;5549.1560
904.0000;5544.2960
905.0000;5541.9340
906.0000;5547.7890
907.0000;5556.2900
908.0000;5564.1040
909.0000;5569.5100
910.0000;5572.1840
911.0000;5571.3140
912.0000;5568.0360
913.0000;5570.0330
914.0000;5584.9000
915.0000;5601.6540
916.0000;5608.3620
917.0000;5599.8410
918.0000;5587.5000
919.0000;5585.0760
920.0000;5591.2880
921.0000;5601.6680
922.0000;5615.5770
923.0000;5627.8730
924.0000;5630.8230
925.0000;5620.5020
926.0000;5606.5940
927.0000;5600.5700
928.0000;5604.0360
929.0000;5613.6000
930.0000;5628.5110
931.0000;5644.5280
932.0000;5654.1810
933.0000;5651.6960
934.0000;5643.9990
935.0000;5641.2190
936.0000;5643.9260
937.0000;5650.3600
938.0000;5657.9180
939.0000;5669.1470
940.0000;5687.0490
941.0000;5715.1290
942.0000;5737.5570
943.0000;5739.8420
944.0000;5718.8540
945.0000;5693.1240
946.0000;5682.4990
947.0000;5684.2340
948.0000;5694.1900
949.0000;5711.2380
950.0000;5728.6450
951.0000;5735.3260
952.0000;5727.4140
953.0000;5715.0140
954.0000;5705.6160
955.0000;5702.0420
956.0000;5709.3470
957.0000;5732.2630
958.0000;5759.0240
959.0000;5774.8950
960.0000;5773.4770
961.0000;5766.2610
962.0000;5766.8390
963.0000;5770.8980
964.0000;5778.2800
965.0000;5789.8480
966.0000;5800.5580
967.0000;5804.7220
968.0000;5800.1140
969.0000;5793.8280
970.0000;5793.8110
971.0000;5798.1810
972.0000;5803.9630
973.0000;5807.7670
974.0000;5813.7440
975.0000;5826.7710
976.0000;5845.6480
977.0000;5865.5400
978.0000;5885.2900
979.0000;5898.6700
980.0000;5903.3200
981.0000;5897.0640
982.0000;5885.2010
983.0000;5883.3580
984.0000;5894.1450
985.0000;5906.3220
986.0000;5910.6330
987.0000;5908.9010
988.0000;5907.3750
989.0000;5908.2850
990.0000;5913.8280
991.0000;5931.5100
992.0000;5958.9970
993.0000;5978.3040
994.0000;5969.7360
995.0000;5940.9590
996.0000;5921.8210
997.0000;5931.3780
998.0000;5953.3280
999.0000;5968.0470
1000.0000;5972.5210
1001.0000;5972.9620
1002.0000;5974.1110
1003.0000;5975.1850
1004.0000;5982.3690
1005.0000;6000.7000
1006.0000;6017.2920
1007.0000;6017.7810
1008.0000;6000.2940
1009.0000;5981.2020
1010.0000;5978.1680
1011.0000;5985.8410
1012.0000;5994.5590
1013.0000;5999.2610
1014.0000;6001.6980
1015.0000;6001.4030
1016.0000;5998.0550
1017.0000;5996.1830
1018.0000;5999.5390
1019.0000;6007.1290
1020.0000;6018.2910
1021.0000;6033.5160
1022.0000;6041.1960
1023.0000;6028.3180
1024.0000;5997.4880
1025.0000;5975.8430
1026.0000;5987.8100
1027.0000;6018.1800
1028.0000;6038.2780
1029.0000;6035.5350
1030.0000;6027.3610
1031.0000;6032.6580
1032.0000;6046.8070
1033.0000;6058.3960
1034.0000;6059.6240
1035.0000;6054.6660
1036.0000;6052.3440
1037.0000;6054.6340
1038.0000;6057.8270
1039.0000;6059.5770
1040.0000;6060.1880
1041.0000;6061.1110
1042.0000;6063.3890
1043.0000;6065.6410
1044.0000;6067.6850
1045.0000;6068.9140
1046.0000;6068.8950
1047.0000;6066.3720
1048.0000;6063.4580
1049.0000;6064.5670
1050.0000;6071.8570
1051.0000;6083.6800
1052.0000;6098.5980
1053.0000;6114.7040
1054.0000;6126.3910
1055.0000;6130.0340
1056.0000;6126.5810
1057.0000;6127.7570
1058.0000;6138.6460
1059.0000;6151.2150
1060.0000;6160.9020
1061.0000;6165.4790
1062.0000;6166.9720
1063.0000;6168.0010
1064.0000;6166.9380
1065.0000;6165.8880
1066.0000;6165.2880
1067.0000;6170.8890
1068.0000;6192.6820
1069.0000;6222.1170
1070.0000;6240.5790
1071.0000;6235.7040
1072.0000;6215.2270
1073.0000;6193.8580
1074.0000;6176.5210
1075.0000;6173.6110
1076.0000;6196.4320
1077.0000;6237.4260
1078.0000;6272.4300
1079.0000;6287.0510
1080.0000;6287.5220
1081.0000;6287.0540
1082.0000;6283.3670
1083.0000;6281.9510
1084.0000;6292.4130
1085.0000;6305.9540
1086.0000;6313.2820
1087.0000;6309.8640
1088.0000;6303.6540
1089.0000;6304.3040
1090.0000;6310.0780
1091.0000;6317.4400
1092.0000;6324.8110
1093.0000;6329.4790
1094.0000;6329.7520
1095.0000;6324.1710
1096.0000;6315.0200
1097.0000;6304.1380
1098.0000;6294.4430
1099.0000;6287.6310
1100.0000;6284.9230
1101.0000;6288.9980
1102.0000;6298.6880
1103.0000;6314.1750
1104.0000;6329.8500
1105.0000;6342.6630
1106.0000;6351.0550
1107.0000;6360.0750
1108.0000;6368.4240
1109.0000;6372.3770
1110.0000;6371.7370
1111.0000;6366.3330
1112.0000;6364.2520
1113.0000;6371.4970
1114.0000;6379.3540
1115.0000;6378.6800
1116.0000;6368.6820
1117.0000;6358.0120
1118.0000;6352.9590
1119.0000;6353.4080
1120.0000;6356.9680
1121.0000;6363.2610
1122.0000;6370.4640
1123.0000;6377.2190
1124.0000;6380.0700
1125.0000;6374.3030
1126.0000;6356.2080
1127.0000;6333.9650
1128.0000;6317.5510
1129.0000;6312.7600
1130.0000;6315.4330
1131.0000;6321.3010
1132.0000;6329.4430
1133.0000;6330.5860
1134.0000;6319.2660
1135.0000;6305.0830
1136.0000;6294.9580
1137.0000;6292.4960
1138.0000;6298.2480
1139.0000;6315.4420
1140.0000;6334.4380
1141.0000;6343.1980
1142.0000;6336.2950
1143.0000;6319.4640
1144.0000;6298.4850
1145.0000;6277.3200
1146.0000;6263.5290
1147.0000;6263.1390
1148.0000;6274.0310
1149.0000;6288.2940
1150.0000;6305.1530
1151.0000;6316.3180
1152.0000;6314.5160
1153.0000;6306.9510
1154.0000;6309.3820
1155.0000;6323.4130
1156.0000;6336.2240
1157.0000;6336.3680
1158.0000;6327.8800
1159.0000;6322.5540
1160.0000;6325.7010
1161.0000;6329.9770
1162.0000;6329.3590
1163.0000;6324.5010
1164.0000;6318.6070
1165.0000;6313.2760
1166.0000;6310.3610
1167.0000;6311.9890
1168.0000;6318.5610
1169.0000;6324.9950
1170.0000;6326.3410
1171.0000;6323.1320
1172.0000;6317.1310
1173.0000;6308.9270
1174.0000;6304.3720
1175.0000;6311.4380
1176.0000;6327.4640
1177.0000;6338.6970
1178.0000;6335.3710
1179.0000;6325.9280
1180.0000;6323.4360
1181.0000;6328.1910
1182.0000;6332.2000
1183.0000;6326.2110
1184.0000;6318.8630
1185.0000;6320.0420
1186.0000;6333.7650
1187.0000;6349.6070
1188.0000;6359.3240
1189.0000;6362.1080
1190.0000;6363.0880
1191.0000;6363.6560
1192.0000;6366.2390
1193.0000;6378.3320
1194.0000;6397.8460
1195.0000;6414.1440
1196.0000;6421.4590
1197.0000;6419.0920
1198.0000;6413.6590
1199.0000;6405.7480
1200.0000;6398.0340
1201.0000;6392.3310
1202.0000;6392.2720
1203.0000;6400.7550
1204.0000;6419.6250
1205.0000;6438.5320
1206.0000;6446.3890
1207.0000;6442.8290
1208.0000;6438.6830
1209.0000;6442.0490
1210.0000;6445.7110
1211.0000;6445.9830
1212.0000;6442.3850
1213.0000;6437.8960
1214.0000;6434.6030
1215.0000;6432.9330
1216.0000;6431.1730
1217.0000;6429.8460
1218.0000;6436.2960
1219.0000;6461.1060
1220.0000;6492.4050
1221.0000;6509.5620
1222.0000;6500.6880
1223.0000;6478.4850
1224.0000;6460.5620
1225.0000;6448.7380
1226.0000;6445.6680
1227.0000;6455.4330
1228.0000;6470.0550
1229.0000;6472.2270
1230.0000;6460.8920
1231.0000;6451.1230
1232.0000;6454.8040
1233.0000;6466.4510
1234.0000;6478.3830
1235.0000;6487.8320
1236.0000;6496.3370
1237.0000;6507.5780
1238.0000;6516.1030
1239.0000;6521.8680
1240.0000;6524.3440
1241.0000;6518.7360
1242.0000;6501.7920
1243.0000;6478.4190
1244.0000;6463.4590
1245.0000;6467.6230
1246.0000;6480.4770
1247.0000;6484.0360
1248.0000;6478.6000
1249.0000;6472.5710
1250.0000;6471.7800
1251.0000;6472.8070
1252.0000;6470.7680
1253.0000;6465.8330
1254.0000;6465.7500
1255.0000;6477.1740
1256.0000;6495.1430
1257.0000;6512.4820
1258.0000;6524.9260
1259.0000;6530.5420
1260.0000;6532.1290
1261.0000;6525.8600
1262.0000;6516.0400
1263.0000;6505.0570
1264.0000;6494.5090
1265.0000;6485.0080
1266.0000;6480.8960
1267.0000;6484.9080
1268.0000;6499.2450
1269.0000;6517.2820
1270.0000;6528.1710
1271.0000;6529.2250
1272.0000;6528.2350
1273.0000;6531.5980
1274.0000;6536.4680
1275.0000;6545.8220
1276.0000;6558.8270
1277.0000;6567.1040
1278.0000;6566.2550
1279.0000;6557.4790
1280.0000;6548.6500
1281.0000;6543.1080
1282.0000;6542.7360
1283.0000;6551.4740
1284.0000;6565.5670
1285.0000;6572.0940
1286.0000;6564.7750
1287.0000;6555.8400
1288.0000;6559.6450
1289.0000;6572.8720
1290.0000;6585.5930
1291.0000;6591.2870
1292.0000;6595.9560
1293.0000;6608.0490
1294.0000;6624.1870
1295.0000;6639.4190
1296.0000;6651.8600
1297.0000;6656.0090
1298.0000;6650.9880
1299.0000;6636.7570
1300.0000;6625.6500
1301.0000;6631.4410
1302.0000;6642.8520
1303.0000;6643.1790
1304.0000;6630.1100
1305.0000;6618.1720
1306.0000;6619.7970
1307.0000;6629.0440
1308.0000;6634.0860
1309.0000;6631.5120
1310.0000;6632.5200
1311.0000;6647.4960
1312.0000;6669.4240
1313.0000;6691.8480
1314.0000;6709.0440
1315.0000;6713.4990
1316.0000;6700.4070
1317.0000;6673.2360
1318.0000;6650.7100
1319.0000;6644.5290
1320.0000;6650.7250
1321.0000;6662.3670
1322.0000;6680.0690
1323.0000;6694.9130
1324.0000;6702.1110
1325.0000;6701.4000
1326.0000;6694.9790
1327.0000;6685.0010
1328.0000;6684.1460
1329.0000;6704.4580
1330.0000;6727.4760
1331.0000;6729.0740
1332.0000;6708.5660
1333.0000;6689.7410
1334.0000;6688.5830
1335.0000;6698.2920
1336.0000;6711.1620
1337.0000;6725.0370
1338.0000;6729.7670
1339.0000;6713.1770
1340.0000;6691.3830
1341.0000;6688.9770
1342.0000;6711.7270
1343.0000;6736.2000
1344.0000;6741.3140
1345.0000;6738.7840
1346.0000;6749.9160
1347.0000;6776.7840
1348.0000;6793.3860
1349.0000;6780.5880
1350.0000;6749.0000
1351.0000;6728.5110
1352.0000;6728.2780
1353.0000;6730.1010
1354.0000;6711.4810
1355.0000;6688.6170
1356.0000;6679.8220
1357.0000;6692.8290
1358.0000;6712.4790
1359.0000;6719.2430
1360.0000;6718.0420
1361.0000;6718.7230
1362.0000;6724.2920
1363.0000;6729.4390
1364.0000;6733.1330
1365.0000;6733.2940
1366.0000;6727.9120
1367.0000;6715.0890
1368.0000;6708.7020
1369.0000;6725.3860
1370.0000;6756.7620
1371.0000;6777.0570
1372.0000;6772.1000
1373.0000;6756.3420
1374.0000;6746.1490
1375.0000;6741.3300
1376.0000;6741.9880
1377.0000;6749.4460
1378.0000;6759.5670
1379.0000;6766.5220
1380.0000;6769.3110
1381.0000;6771.0250
1382.0000;6773.0720
1383.0000;6773.6190
1384.0000;6773.5600
1385.0000;6772.5490
1386.0000;6771.3050
1387.0000;6769.4020
1388.0000;6771.1260
1389.0000;6782.4700
1390.0000;6799.7720
1391.0000;6811.4070
1392.0000;6809.5320
1393.0000;6802.0640
1394.0000;6800.9830
1395.0000;6805.3600
1396.0000;6810.7340
1397.0000;6814.7910
1398.0000;6818.3330
1399.0000;6821.4560
1400.0000;6824.4020
1401.0000;6832.2170
1402.0000;6850.7350
1403.0000;6863.8150
1404.0000;6854.3870
1405.0000;6825.9710
1406.0000;6805.9150
1407.0000;6811.9970
1408.0000;6831.1270
1409.0000;6845.9200
1410.0000;6855.6090
1411.0000;6862.4290
1412.0000;6865.6070
1413.0000;6867.9120
1414.0000;6881.6780
1415.0000;6899.9900
1416.0000;6905.0960
1417.0000;6884.1850
1418.0000;6857.2510
1419.0000;6850.6810
1420.0000;6864.9460
1421.0000;6879.8950
1422.0000;6884.1460
1423.0000;6886.1970
1424.0000;6894.9390
1425.0000;6905.6800
1426.0000;6910.0830
1427.0000;6902.8000
1428.0000;6891.7400
1429.0000;6889.5400
1430.0000;6894.4190
1431.0000;6896.0090
1432.0000;6888.0350
1433.0000;6881.0410
1434.0000;6887.7850
1435.0000;6902.6300
1436.0000;6905.3800
1437.0000;6883.4050
1438.0000;6859.3810
1439.0000;6858.5010
1440.0000;6875.8660
1441.0000;6886.7840
1442.0000;6877.6630
1443.0000;6865.1720
1444.0000;6863.8250
1445.0000;6871.7500
1446.0000;6880.5270
1447.0000;6886.6810
1448.0000;6892.0640
1449.0000;6900.4010
1450.0000;6906.4150
1451.0000;6906.0530
1452.0000;6896.7680
1453.0000;6886.8760
1454.0000;6887.5200
1455.0000;6895.0590
1456.0000;6900.3540
1457.0000;6899.6390
1458.0000;6897.7060
1459.0000;6901.1380
1460.0000;6903.7410
1461.0000;6895.9170
1462.0000;6874.7370
1463.0000;6861.3290
1464.0000;6877.6840
1465.0000;6906.3600
1466.0000;6910.4120
1467.0000;6881.5010
1468.0000;6850.0000
1469.0000;6843.5030
1470.0000;6853.4750
1471.0000;6865.5470
1472.0000;6876.2120
1473.0000;6882.3060
1474.0000;6877.6250
1475.0000;6867.5210
1476.0000;6864.0690
1477.0000;6868.8120
1478.0000;6876.3260
1479.0000;6881.0480
1480.0000;6887.0710
1481.0000;6898.9470
1482.0000;6914.4970
1483.0000;6926.0100
1484.0000;6930.1830
1485.0000;6927.2300
1486.0000;6922.8360
1487.0000;6918.0030
1488.0000;6918.9020
1489.0000;6931.3770
1490.0000;6943.4200
1491.0000;6937.7810
1492.0000;6920.2780
1493.0000;6915.9160
1494.0000;6938.6460
1495.0000;6964.9570
1496.0000;6973.3040
1497.0000;6964.9600
1498.0000;6955.4170
1499.0000;6951.1800
1500.0000;6947.3320
1501.0000;6941.8970
1502.0000;6936.5950
1503.0000;6929.4750
1504.0000;6921.2080
1505.0000;6916.4970
1506.0000;6917.7380
1507.0000;6923.1640
1508.0000;6924.2080
1509.0000;6919.1690
1510.0000;6916.4120
1511.0000;6921.1180
1512.0000;6931.5080
1513.0000;6944.0070
1514.0000;6957.1910
1515.0000;6969.5680
1516.0000;6980.5830
1517.0000;6988.0420
1518.0000;6997.0210
1519.0000;7003.6010
1520.0000;7005.2130
1521.0000;7000.0130
1522.0000;6992.6780
1523.0000;6990.7390
1524.0000;6995.1660
1525.0000;7005.8450
1526.0000;7023.3820
1527.0000;7035.9370
1528.0000;7031.9170
1529.0000;7015.3690
1530.0000;7006.7940
1531.0000;7013.9510
1532.0000;7023.5690
1533.0000;7021.2060
1534.0000;7014.6520
1535.0000;7015.8600
1536.0000;7026.6880
1537.0000;7036.7560
1538.0000;7037.6760
1539.0000;7032.1250
1540.0000;7025.0880
1541.0000;7018.7490
1542.0000;7019.6270
1543.0000;7034.2040
1544.0000;7052.4070
1545.0000;7061.3900
1546.0000;7058.5730
1547.0000;7050.9250
1548.0000;7041.2990
1549.0000;7035.0750
1550.0000;7041.3820
1551.0000;7056.2290
1552.0000;7066.7130
1553.0000;7065.6420
1554.0000;7060.4130
1555.0000;7059.1660
1556.0000;7059.7380
1557.0000;7062.5190
1558.0000;7067.2030
1559.0000;7067.4510
1560.0000;7055.3030
1561.0000;7040.9980
1562.0000;7039.6190
1563.0000;7052.6670
1564.0000;7063.5270
1565.0000;7061.2180
1566.0000;7050.4770
1567.0000;7034.7280
1568.0000;7018.4420
1569.0000;7012.6990
1570.0000;7025.7080
1571.0000;7040.6600
1572.0000;7036.1680
1573.0000;7017.5150
1574.0000;6998.7660
1575.0000;6986.1350
1576.0000;6982.1390
1577.0000;6989.0890
1578.0000;7002.8180
1579.0000;7005.1930
1580.0000;6993.5910
1581.0000;6987.5410
1582.0000;7003.6400
1583.0000;7024.7090
1584.0000;7029.5550
1585.0000;7018.0820
1586.0000;7010.8920
1587.0000;7021.8260
1588.0000;7032.9850
1589.0000;7027.8870
1590.0000;7009.2270
1591.0000;6986.6270
1592.0000;6965.0860
1593.0000;6953.0960
1594.0000;6955.5250
1595.0000;6971.5810
1596.0000;6985.9700
1597.0000;6994.1060
1598.0000;6995.2290
1599.0000;6985.6980
1600.0000;6974.3670
1601.0000;6977.1120
1602.0000;6993.2520
1603.0000;7008.2930
1604.0000;7012.9600
1605.0000;7010.8190
1606.0000;7007.2110
1607.0000;7000.7040
1608.0000;6994.2700
1609.0000;6989.5650
1610.0000;6988.1830
1611.0000;6989.2710
1612.0000;6994.8730
1613.0000;7002.6330
1614.0000;7012.4220
1615.0000;7027.2420
1616.0000;7053.2680
1617.0000;7073.6250
1618.0000;7073.6660
1619.0000;7052.6730
1620.0000;7030.2410
1621.0000;7018.6060
1622.0000;7015.6000
1623.0000;7018.3020
1624.0000;7028.9830
1625.0000;7042.3090
1626.0000;7054.4350
1627.0000;7059.8480
1628.0000;7053.4430
1629.0000;7040.3160
1630.0000;7032.4750
1631.0000;7032.9940
1632.0000;7039.7170
1633.0000;7052.2350
1634.0000;7063.7650
1635.0000;7065.6370
1636.0000;7058.0180
1637.0000;7050.5540
1638.0000;7047.4690
1639.0000;7044.4930
1640.0000;7036.2290
1641.0000;7030.0270
1642.0000;7033.1270
1643.0000;7046.5680
1644.0000;7058.8780
1645.0000;7063.6610
1646.0000;7060.2430
1647.0000;7048.7190
1648.0000;7033.0610
1649.0000;7026.4790
1650.0000;7037.3560
1651.0000;7048.4790
1652.0000;7040.7130
1653.0000;7024.7630
1654.0000;7016.3990
1655.0000;7020.1040
1656.0000;7027.5670
1657.0000;7033.9700
1658.0000;7036.4950
1659.0000;7030.4450
1660.0000;7016.2760
1661.0000;7001.1210
1662.0000;6988.0350
1663.0000;6983.1220
1664.0000;6992.9770
1665.0000;7008.1410
1666.0000;7002.0130
1667.0000;6970.7780
1668.0000;6946.6350
1669.0000;6954.6880
1670.0000;6974.5590
1671.0000;6975.1950
1672.0000;6959.8300
1673.0000;6946.0600
1674.0000;6940.7350
1675.0000;6941.5780
1676.0000;6945.4600
1677.0000;6952.6230
1678.0000;6956.4800
1679.0000;6955.5260
1680.0000;6955.8620
1681.0000;6964.0100
1682.0000;6969.7410
1683.0000;6962.3220
1684.0000;6945.3920
1685.0000;6933.2300
1686.0000;6934.2430
1687.0000;6937.7800
1688.0000;6931.9640
1689.0000;6922.7080
1690.0000;6911.9570
1691.0000;6903.1340
1692.0000;6902.3300
1693.0000;6913.7920
1694.0000;6929.7050
1695.0000;6939.4430
1696.0000;6940.3090
1697.0000;6933.9730
1698.0000;6920.4080
1699.0000;6906.8000
1700.0000;6904.6440
1701.0000;6904.4580
1702.0000;6886.1040
1703.0000;6854.6320
1704.0000;6835.7100
1705.0000;6844.3790
1706.0000;6864.5260
1707.0000;6869.6330
1708.0000;6867.0000
1709.0000;6873.0510
1710.0000;6889.7990
1711.0000;6894.8000
1712.0000;6870.0440
1713.0000;6834.9750
1714.0000;6815.9110
1715.0000;6817.5570
1716.0000;6826.0710
1717.0000;6835.6670
1718.0000;6847.7720
1719.0000;6859.7410
1720.0000;6868.0920
1721.0000;6872.9370
1722.0000;6872.3910
1723.0000;6870.4640
1724.0000;6871.1340
1725.0000;6872.1540
1726.0000;6874.7610
1727.0000;6876.5430
1728.0000;6872.7870
1729.0000;6862.3150
1730.0000;6850.8740
1731.0000;6842.7810
1732.0000;6838.5790
1733.0000;6834.4160
1734.0000;6832.2320
1735.0000;6830.9940
1736.0000;6829.5420
1737.0000;6831.8420
1738.0000;6839.0880
1739.0000;6850.2240
1740.0000;6866.6370
1741.0000;6882.7140
1742.0000;6877.0230
1743.0000;6828.8140
1744.0000;6783.5640
1745.0000;6792.2420
1746.0000;6842.0630
1747.0000;6877.5730
1748.0000;6878.7800
1749.0000;6867.9180
1750.0000;6861.7220
1751.0000;6855.4360
1752.0000;6856.9530
1753.0000;6863.3570
1754.0000;6849.5430
1755.0000;6800.0390
1756.0000;6817.5380
1757.0000;7043.8240
1758.0000;7296.0960
1759.0000;7314.2950
1760.0000;7060.7360
1761.0000;6833.1350
1762.0000;6800.4180
1763.0000;6850.2160
1764.0000;6852.2330
1765.0000;6849.7750
1766.0000;6847.2200
1767.0000;6844.7140
1768.0000;6839.3870
1769.0000;6827.0060
1770.0000;6817.3330
1771.0000;6821.6290
1772.0000;6832.6570
1773.0000;6825.7480
1774.0000;6793.4640
1775.0000;6765.9770
1776.0000;6764.9450
1777.0000;6777.8720
1778.0000;6778.1600
1779.0000;6769.7650
1780.0000;6765.0500
1781.0000;6768.3280
1782.0000;6773.6000
1783.0000;6776.4290
1784.0000;6776.6410
1785.0000;6774.3390
1786.0000;6768.9860
1787.0000;6761.6010
1788.0000;6752.4350
1789.0000;6747.4740
1790.0000;6750.7760
1791.0000;6759.7210
1792.0000;6765.6500
1793.0000;6766.0660
1794.0000;6762.5330
1795.0000;6754.5490
1796.0000;6749.4210
1797.0000;6758.7120
1798.0000;6772.0330
1799.0000;6768.8990
1800.0000;6746.4790
1801.0000;6723.7460
1802.0000;6713.9190
1803.0000;6714.3590
1804.0000;6719.1010
1805.0000;6727.9580
1806.0000;6732.0850
1807.0000;6728.0570
1808.0000;6720.1750
1809.0000;6711.8500
1810.0000;6701.2770
1811.0000;6685.9230
1812.0000;6670.4820
1813.0000;6660.2920
1814.0000;6658.1980
1815.0000;6654.1300
1816.0000;6635.3910
1817.0000;6619.6250
1818.0000;6618.6840
1819.0000;6633.1690
1820.0000;6648.6040
1821.0000;6660.0550
1822.0000;6665.0900
1823.0000;6663.5040
1824.0000;6652.6600
1825.0000;6630.5570
1826.0000;6608.0330
1827.0000;6611.5530
1828.0000;6649.2900
1829.0000;6680.7590
1830.0000;6666.7060
1831.0000;6633.1640
1832.0000;6617.3440
1833.0000;6619.2510
1834.0000;6628.0190
1835.0000;6640.7240
1836.0000;6649.9300
1837.0000;6646.8790
1838.0000;6636.7890
1839.0000;6627.8390
1840.0000;6622.7950
1841.0000;6625.4550
1842.0000;6637.6910
1843.0000;6646.4950
1844.0000;6639.0590
1845.0000;6625.8430
1846.0000;6623.0470
1847.0000;6627.9920
1848.0000;6626.5410
1849.0000;6614.3790
1850.0000;6605.2510
1851.0000;6607.7470
1852.0000;6619.1460
1853.0000;6636.1400
1854.0000;6651.4000
1855.0000;6648.3810
1856.0000;6621.1150
1857.0000;6598.6840
1858.0000;6605.5670
1859.0000;6627.2570
1860.0000;6641.6710
1861.0000;6649.3550
1862.0000;6657.1350
1863.0000;6664.3730
1864.0000;6666.9630
1865.0000;6663.6880
1866.0000;6658.4810
1867.0000;6661.5480
1868.0000;6668.9390
1869.0000;6670.0670
1870.0000;6662.3020
1871.0000;6656.0980
1872.0000;6660.3670
1873.0000;6665.0330
1874.0000;6657.6040
1875.0000;6643.0040
1876.0000;6633.0320
1877.0000;6631.9890
1878.0000;6639.2080
1879.0000;6654.4180
1880.0000;6670.5310
1881.0000;6676.5640
1882.0000;6675.4470
1883.0000;6684.3430
1884.0000;6701.3880
1885.0000;6706.1520
1886.0000;6684.9650
1887.0000;6666.7180
1888.0000;6684.8290
1889.0000;6723.5970
1890.0000;6750.2620
1891.0000;6756.2550
1892.0000;6746.5990
1893.0000;6721.1240
1894.0000;6700.2150
1895.0000;6711.5500
1896.0000;6734.1870
1897.0000;6727.6230
1898.0000;6696.6380
1899.0000;6678.8430
1900.0000;6690.7080
1901.0000;6713.2850
1902.0000;6730.1560
1903.0000;6738.8520
1904.0000;6734.9900
1905.0000;6717.8360
1906.0000;6697.8840
1907.0000;6680.9380
1908.0000;6678.6760
1909.0000;6701.4840
1910.0000;6728.7530
1911.0000;6725.8800
1912.0000;6702.3730
1913.0000;6688.8850
1914.0000;6694.4580
1915.0000;6709.4310
1916.0000;6730.8730
1917.0000;6747.0870
1918.0000;6746.5440
1919.0000;6731.9550
1920.0000;6719.4080
1921.0000;6713.6240
1922.0000;6716.5890
1923.0000;6731.9900
1924.0000;6742.9530
1925.0000;6729.8350
1926.0000;6708.0650
1927.0000;6700.1690
1928.0000;6709.2930
1929.0000;6725.8350
1930.0000;6744.8710
1931.0000;6760.4430
1932.0000;6765.4050
1933.0000;6762.8060
1934.0000;6765.5020
1935.0000;6769.5320
1936.0000;6771.0650
1937.0000;6769.2560
1938.0000;6768.4480
1939.0000;6771.7800
1940.0000;6776.2430
1941.0000;6778.6570
1942.0000;6780.4170
1943.0000;6786.2740
1944.0000;6794.3510
1945.0000;6794.7750
1946.0000;6781.7770
1947.0000;6776.2210
1948.0000;6800.1630
1949.0000;6833.1840
1950.0000;6844.3230
1951.0000;6835.1980
1952.0000;6834.1380
1953.0000;6848.6200
1954.0000;6861.7470
1955.0000;6866.5720
1956.0000;6861.9930
1957.0000;6850.1330
1958.0000;6834.3130
1959.0000;6826.0020
1960.0000;6828.8300
1961.0000;6834.4100
1962.0000;6837.2950
1963.0000;6844.2000
1964.0000;6860.3680
1965.0000;6877.5070
1966.0000;6887.6320
1967.0000;6887.0080
1968.0000;6881.4250
1969.0000;6872.5280
1970.0000;6869.9550
1971.0000;6884.3610
1972.0000;6900.0670
1973.0000;6897.2730
1974.0000;6883.6950
1975.0000;6881.6710
1976.0000;6893.3000
1977.0000;6902.0850
1978.0000;6899.7720
1979.0000;6896.0000
1980.0000;6899.8370
1981.0000;6905.9960
1982.0000;6908.9720
1983.0000;6909.4620
1984.0000;6914.2620
1985.0000;6923.8590
1986.0000;6927.9300
1987.0000;6919.0010
1988.0000;6909.4570
1989.0000;6911.3600
1990.0000;6924.4400
1991.0000;6945.8670
1992.0000;6970.2880
1993.0000;6984.8120
1994.0000;6981.2840
1995.0000;6973.9080
1996.0000;6979.8330
1997.0000;6988.7040
1998.0000;6994.0540
1999.0000;6995.1890
2000.0000;6997.3540
2001.0000;6998.9140
2002.0000;6988.0460
2003.0000;6957.9020
2004.0000;6932.3220
2005.0000;6932.7780
2006.0000;6950.3710
2007.0000;6956.9790
2008.0000;6955.5770
2009.0000;6961.6000
2010.0000;6978.0800
2011.0000;6990.6870
2012.0000;6991.7560
2013.0000;6986.2740
2014.0000;6985.7960
2015.0000;6984.0200
2016.0000;6972.7000
2017.0000;6956.4470
2018.0000;6953.3990
2019.0000;6972.1200
2020.0000;6992.7760
2021.0000;7000.6180
2022.0000;6998.6300
2023.0000;6992.2090
2024.0000;6982.7490
2025.0000;6979.8170
2026.0000;6985.7430
2027.0000;6994.6330
2028.0000;7003.6970
2029.0000;7006.9060
2030.0000;6998.1030
2031.0000;6984.9640
2032.0000;6981.0030
2033.0000;6984.2150
2034.0000;6984.5910
2035.0000;6980.2410
2036.0000;6969.1830
2037.0000;6949.2230
2038.0000;6935.2000
2039.0000;6937.6730
2040.0000;6950.1830
2041.0000;6950.5350
2042.0000;6946.8610
2043.0000;6963.3440
2044.0000;6998.1680
2045.0000;7010.4970
2046.0000;6973.9880
2047.0000;6935.4000
2048.0000;6940.4700
2049.0000;6969.2920
2050.0000;6989.2010
2051.0000;6996.2520
2052.0000;6985.8130
2053.0000;6958.0280
2054.0000;6939.5580
2055.0000;6950.1600
2056.0000;6968.2000
2057.0000;6969.8100
2058.0000;6962.4170
2059.0000;6950.7250
2060.0000;6939.9520
2061.0000;6941.9540
2062.0000;6959.4870
2063.0000;6974.6140
2064.0000;6974.6930
2065.0000;6969.2000
2066.0000;6971.5170
2067.0000;6971.6200
2068.0000;6960.2670
2069.0000;6942.4320
2070.0000;6933.0220
2071.0000;6937.0210
2072.0000;6945.8130
2073.0000;6954.7470
2074.0000;6959.4110
2075.0000;6953.4510
2076.0000;6943.1400
2077.0000;6942.1530
2078.0000;6947.3660
2079.0000;6944.0800
2080.0000;6933.0490
2081.0000;6935.4790
2082.0000;6961.9740
2083.0000;6989.4550
2084.0000;6995.2350
2085.0000;6989.7000
2086.0000;6996.2090
2087.0000;7004.9650
2088.0000;7001.0720
2089.0000;6983.9640
2090.0000;6972.8440
2091.0000;6977.2710
2092.0000;6986.3050
2093.0000;6990.3350
2094.0000;6991.4590
2095.0000;6989.5200
2096.0000;6986.0590
2097.0000;6986.7860
2098.0000;6992.2320
2099.0000;7001.0050
2100.0000;7011.3960
2101.0000;7012.1710
2102.0000;6994.7470
2103.0000;6974.3240
2104.0000;6966.9040
2105.0000;6971.5230
2106.0000;6977.2370
2107.0000;6984.0620
2108.0000;6990.3590
2109.0000;6994.2220
2110.0000;6993.5260
2111.0000;6987.3350
2112.0000;6979.6000
2113.0000;6974.5470
2114.0000;6974.0270
2115.0000;6976.7080
2116.0000;6984.1550
2117.0000;6996.2610
2118.0000;7010.5880
2119.0000;7022.3360
2120.0000;7028.2700
2121.0000;7023.7120
2122.0000;7005.6400
2123.0000;6988.4200
2124.0000;6993.2800
2125.0000;7012.1580
2126.0000;7021.0800
2127.0000;7017.6140
2128.0000;7011.4560
2129.0000;7005.7050
2130.0000;7000.7730
2131.0000;6999.4680
2132.0000;6996.4900
2133.0000;6982.8860
2134.0000;6967.9690
2135.0000;6962.9280
2136.0000;6967.4760
2137.0000;6968.7000
2138.0000;6965.1860
2139.0000;6962.2910
2140.0000;6961.4530
2141.0000;6969.7820
2142.0000;6993.0900
2143.0000;7019.8130
2144.0000;7039.9380
2145.0000;7047.0920
2146.0000;7049.9050
2147.0000;7042.4330
2148.0000;7018.5920
2149.0000;6981.1350
2150.0000;6959.9930
2151.0000;6976.2140
2152.0000;7001.6000
2153.0000;7000.2500
2154.0000;6986.8390
2155.0000;6979.3550
2156.0000;6976.3380
2157.0000;6973.6640
2158.0000;6972.2910
2159.0000;6972.4110
2160.0000;6973.8660
2161.0000;6975.8750
2162.0000;6976.0400
2163.0000;6979.6740
2164.0000;6994.3570
2165.0000;7009.3850
2166.0000;7012.8600
2167.0000;7002.4100
2168.0000;6986.8520
2169.0000;6970.6280
2170.0000;6963.9320
2171.0000;6973.7030
2172.0000;6984.7740
2173.0000;6983.5370
2174.0000;6974.7610
2175.0000;6963.4440
2176.0000;6950.3180
2177.0000;6935.7880
2178.0000;6926.0700
2179.0000;6927.8710
2180.0000;6942.6220
2181.0000;6953.6750
2182.0000;6950.2890
2183.0000;6944.4790
2184.0000;6945.9360
2185.0000;6950.1100
2186.0000;6956.4380
2187.0000;6959.5920
2188.0000;6952.1000
2189.0000;6935.6550
2190.0000;6922.4590
2191.0000;6918.0150
2192.0000;6924.4050
2193.0000;6943.3330
2194.0000;6955.7180
2195.0000;6942.5780
2196.0000;6923.4930
2197.0000;6922.5200
2198.0000;6935.1150
2199.0000;6953.1010
2200.0000;6967.5380
2201.0000;6960.1190
2202.0000;6927.0690
2203.0000;6899.1790
2204.0000;6892.4240
2205.0000;6901.3130
2206.0000;6922.2230
2207.0000;6939.4680
2208.0000;6927.3630
2209.0000;6900.9670
2210.0000;6891.6410
2211.0000;6900.8680
2212.0000;6918.0610
2213.0000;6937.4360
2214.0000;6945.2040
2215.0000;6932.2740
2216.0000;6914.1180
2217.0000;6902.9430
2218.0000;6897.4650
2219.0000;6892.9160
2220.0000;6896.0770
2221.0000;6907.7710
2222.0000;6923.7210
2223.0000;6934.0560
2224.0000;6934.2850
2225.0000;6930.3370
2226.0000;6924.5870
2227.0000;6924.1710
2228.0000;6936.0450
2229.0000;6947.2760
2230.0000;6946.3300
2231.0000;6938.2130
2232.0000;6931.5180
2233.0000;6927.9450
2234.0000;6933.1080
2235.0000;6942.5240
2236.0000;6935.1630
2237.0000;6908.0730
2238.0000;6891.3540
2239.0000;6901.3950
2240.0000;6916.5890
2241.0000;6920.0620
2242.0000;6913.7630
2243.0000;6896.9620
2244.0000;6875.4030
2245.0000;6856.5090
2246.0000;6849.7730
2247.0000;6860.6680
2248.0000;6888.4130
2249.0000;6912.9790
2250.0000;6922.6020
2251.0000;6911.1880
2252.0000;6873.9930
2253.0000;6845.2370
2254.0000;6859.3910
2255.0000;6893.6200
2256.0000;6914.1980
2257.0000;6918.6620
2258.0000;6909.0490
2259.0000;6885.1580
2260.0000;6858.9410
2261.0000;6839.8130
2262.0000;6838.8250
2263.0000;6861.6910
2264.0000;6885.3330
2265.0000;6890.3550
2266.0000;6885.9730
2267.0000;6882.3390
2268.0000;6878.5640
2269.0000;6881.2750
2270.0000;6887.6070
2271.0000;6891.1120
2272.0000;6889.9810
2273.0000;6885.6360
2274.0000;6878.1420
2275.0000;6866.5350
2276.0000;6851.9820
2277.0000;6844.1460
2278.0000;6850.7020
2279.0000;6856.5780
2280.0000;6835.6380
2281.0000;6817.9420
2282.0000;6842.8500
2283.0000;6885.4190
2284.0000;6885.9030
2285.0000;6849.2190
2286.0000;6834.1120
2287.0000;6852.5600
2288.0000;6872.5020
2289.0000;6879.5780
2290.0000;6879.3300
2291.0000;6872.3830
2292.0000;6865.8950
2293.0000;6874.8040
2294.0000;6881.7720
2295.0000;6863.5680
2296.0000;6835.5240
2297.0000;6823.8050
2298.0000;6831.0430
2299.0000;6839.0110
2300.0000;6845.4660
2301.0000;6851.1440
2302.0000;6854.5920
2303.0000;6866.7610
2304.0000;6895.7290
2305.0000;6914.9800
2306.0000;6905.1040
2307.0000;6885.0620
2308.0000;6889.3700
2309.0000;6897.7930
2310.0000;6877.6840
2311.0000;6843.2130
2312.0000;6832.2230
2313.0000;6847.7230
2314.0000;6854.9860
2315.0000;6846.9920
2316.0000;6847.2880
2317.0000;6865.5660
2318.0000;6872.1530
2319.0000;6845.7300
2320.0000;6812.4230
2321.0000;6798.1460
2322.0000;6801.7630
2323.0000;6812.2090
2324.0000;6829.7100
2325.0000;6844.8620
2326.0000;6853.5630
2327.0000;6860.8080
2328.0000;6863.5650
2329.0000;6861.0280
2330.0000;6853.5320
2331.0000;6849.6230
2332.0000;6855.3040
2333.0000;6857.2030
2334.0000;6845.1670
2335.0000;6828.2000
2336.0000;6809.3690
2337.0000;6803.6110
2338.0000;6824.5290
2339.0000;6861.9020
2340.0000;6890.1160
2341.0000;6900.6190
2342.0000;6902.7060
2343.0000;6896.4400
2344.0000;6899.6420
2345.0000;6917.1580
2346.0000;6919.0280
2347.0000;6890.3870
2348.0000;6859.1850
2349.0000;6846.7340
2350.0000;6850.8000
2351.0000;6866.7460
2352.0000;6883.8980
2353.0000;6877.2910
2354.0000;6856.8490
2355.0000;6842.3330
2356.0000;6842.2270
2357.0000;6866.2530
2358.0000;6907.4950
2359.0000;6924.8910
2360.0000;6904.9400
2361.0000;6889.6860
2362.0000;6901.3260
2363.0000;6908.6720
2364.0000;6892.6520
2365.0000;6876.2000
2366.0000;6880.9340
2367.0000;6888.9340
2368.0000;6875.3140
2369.0000;6855.6460
2370.0000;6849.9180
2371.0000;6860.5590
2372.0000;6882.8350
2373.0000;6907.2060
2374.0000;6904.3180
2375.0000;6872.1390
2376.0000;6866.0810
2377.0000;6905.0970
2378.0000;6925.2230
2379.0000;6890.8690
2380.0000;6853.8330
2381.0000;6852.8950
2382.0000;6870.1130
2383.0000;6887.5960
2384.0000;6900.8360
2385.0000;6896.8240
2386.0000;6882.4310
2387.0000;6879.6770
2388.0000;6886.2200
2389.0000;6890.6260
2390.0000;6891.5250
2391.0000;6890.9220
2392.0000;6888.6600
2393.0000;6885.0010
2394.0000;6880.6860
2395.0000;6875.9270
2396.0000;6871.0690
2397.0000;6869.9550
2398.0000;6873.8620
2399.0000;6882.7660
2400.0000;6897.8050
2401.0000;6906.7650
2402.0000;6896.5930
2403.0000;6876.5380
2404.0000;6872.0150
2405.0000;6877.3420
2406.0000;6873.3470
2407.0000;6860.7580
2408.0000;6845.4590
2409.0000;6832.9000
2410.0000;6832.1040
2411.0000;6846.9250
2412.0000;6863.0160
2413.0000;6871.9710
2414.0000;6872.8700
2415.0000;6863.9700
2416.0000;6855.5730
2417.0000;6860.0360
2418.0000;6867.0000
2419.0000;6861.5020
2420.0000;6856.7240
2421.0000;6868.8470
2422.0000;6888.9810
2423.0000;6904.9610
2424.0000;6908.7790
2425.0000;6897.7660
2426.0000;6874.0270
2427.0000;6858.6950
2428.0000;6857.8910
2429.0000;6859.8150
2430.0000;6861.4370
2431.0000;6861.3240
2432.0000;6857.4770
2433.0000;6849.6470
2434.0000;6837.7090
2435.0000;6831.4810
2436.0000;6839.3130
2437.0000;6850.3200
2438.0000;6850.1220
2439.0000;6842.8970
2440.0000;6829.3080
2441.0000;6823.9450
2442.0000;6855.6430
2443.0000;6899.7710
2444.0000;6893.9820
2445.0000;6845.3090
2446.0000;6822.3710
2447.0000;6833.3750
2448.0000;6838.3920
2449.0000;6830.2400
2450.0000;6822.2600
2451.0000;6819.0460
2452.0000;6820.9690
2453.0000;6828.4250
2454.0000;6836.1640
2455.0000;6839.3060
2456.0000;6841.6720
2457.0000;6850.5960
2458.0000;6850.6000
2459.0000;6825.1210
2460.0000;6796.8000
2461.0000;6796.8780
2462.0000;6811.9750
2463.0000;6804.7160
2464.0000;6789.2750
2465.0000;6793.1050
2466.0000;6813.4650
2467.0000;6827.6590
2468.0000;6830.3700
2469.0000;6827.4740
2470.0000;6820.0120
2471.0000;6816.0490
2472.0000;6819.5840
2473.0000;6827.5960
2474.0000;6837.7710
2475.0000;6842.6610
2476.0000;6836.7890
2477.0000;6826.1970
2478.0000;6817.4650
2479.0000;6810.2690
2480.0000;6801.6650
2481.0000;6802.8120
2482.0000;6822.7900
2483.0000;6846.9140
2484.0000;6854.5580
2485.0000;6845.8000
2486.0000;6831.5830
2487.0000;6817.4420
2488.0000;6817.0000
2489.0000;6830.1530
2490.0000;6844.1380
2491.0000;6852.3010
2492.0000;6845.6330
2493.0000;6823.4330
2494.0000;6803.3070
2495.0000;6793.1300
2496.0000;6782.2880
2497.0000;6769.8390
2498.0000;6767.4060
2499.0000;6778.9870
2500.0000;6797.2200
2501.0000;6814.8380
2502.0000;6823.7880
2503.0000;6817.9880
2504.0000;6806.1750
2505.0000;6803.0970
2506.0000;6803.2040
2507.0000;6797.1080
2508.0000;6798.1370
2509.0000;6823.7110
2510.0000;6852.1070
2511.0000;6850.1350
2512.0000;6827.5860
2513.0000;6823.7560
2514.0000;6831.7000
2515.0000;6826.1600
2516.0000;6806.5280
2517.0000;6780.4500
2518.0000;6757.3650
2519.0000;6754.9990
2520.0000;6776.3440
2521.0000;6783.1000
2522.0000;6763.4880
2523.0000;6753.4380
2524.0000;6766.4800
2525.0000;6769.5740
2526.0000;6746.3850
2527.0000;6728.5780
2528.0000;6735.9680
2529.0000;6749.3960
2530.0000;6752.8320
2531.0000;6754.9090
2532.0000;6760.2970
2533.0000;6766.9850
2534.0000;6775.9530
2535.0000;6784.4540
2536.0000;6797.5570
2537.0000;6801.9520
2538.0000;6789.2200
2539.0000;6762.0930
2540.0000;6728.4980
2541.0000;6703.8130
2542.0000;6700.1110
2543.0000;6717.3930
2544.0000;6726.7580
2545.0000;6727.2230
2546.0000;6728.8830
2547.0000;6730.4390
2548.0000;6728.3250
2549.0000;6722.1190
2550.0000;6714.5970
2551.0000;6708.0180
2552.0000;6705.2440
2553.0000;6707.9770
2554.0000;6714.2310
2555.0000;6722.1350
2556.0000;6726.2400
2557.0000;6723.2110
2558.0000;6719.7260
2559.0000;6721.0020
2560.0000;6719.1970
2561.0000;6710.5060
2562.0000;6697.4660
2563.0000;6681.6290
2564.0000;6671.8630
2565.0000;6671.5970
2566.0000;6680.5990
2567.0000;6692.5780
2568.0000;6702.6790
2569.0000;6704.0210
2570.0000;6699.1430
2571.0000;6695.6040
2572.0000;6697.2980
2573.0000;6716.8540
2574.0000;6735.0220
2575.0000;6715.7620
2576.0000;6678.4240
2577.0000;6671.5630
2578.0000;6691.1420
2579.0000;6698.9500
2580.0000;6695.8770
2581.0000;6693.9200
2582.0000;6694.5330
2583.0000;6699.1600
2584.0000;6707.5300
2585.0000;6720.7690
2586.0000;6732.8300
2587.0000;6724.1570
2588.0000;6695.1020
2589.0000;6690.3280
2590.0000;6719.3550
2591.0000;6728.2480
2592.0000;6697.0830
2593.0000;6670.7800
2594.0000;6669.9490
2595.0000;6672.8860
2596.0000;6670.3010
2597.0000;6674.0480
2598.0000;6687.2670
2599.0000;6699.4540
2600.0000;6703.5140
2601.0000;6705.0210
2602.0000;6710.1250
2603.0000;6711.8800
2604.0000;6708.3090
2605.0000;6700.0900
2606.0000;6688.3220
2607.0000;6681.7450
2608.0000;6689.5220
2609.0000;6698.1350
2610.0000;6685.2720
2611.0000;6673.4230
2612.0000;6689.0860
2613.0000;6714.4430
2614.0000;6724.8320
2615.0000;6720.7350
2616.0000;6710.0670
2617.0000;6694.4790
2618.0000;6681.6940
2619.0000;6677.3700
2620.0000;6683.8330
2621.0000;6695.5290
2622.0000;6693.8020
2623.0000;6682.5240
2624.0000;6676.2950
2625.0000;6673.6600
2626.0000;6663.3860
2627.0000;6654.5480
2628.0000;6666.3330
2629.0000;6692.7960
2630.0000;6706.1790
2631.0000;6704.3600
2632.0000;6710.2180
2633.0000;6720.2090
2634.0000;6719.6150
2635.0000;6705.5320
2636.0000;6682.2570
2637.0000;6657.9250
2638.0000;6644.1480
2639.0000;6647.1440
2640.0000;6653.0560
2641.0000;6658.5970
2642.0000;6666.3630
2643.0000;6674.2450
2644.0000;6676.2590
2645.0000;6671.2830
2646.0000;6673.6440
2647.0000;6685.9090
2648.0000;6684.1140
2649.0000;6661.2820
2650.0000;6638.1600
2651.0000;6627.0900
2652.0000;6644.9030
2653.0000;6695.6460
2654.0000;6717.8940
2655.0000;6681.0640
2656.0000;6634.2200
2657.0000;6605.6220
2658.0000;6604.4340
2659.0000;6638.0940
2660.0000;6667.5150
2661.0000;6661.9390
2662.0000;6646.1830
2663.0000;6636.2510
2664.0000;6628.3730
2665.0000;6624.0590
2666.0000;6628.8320
2667.0000;6644.5800
2668.0000;6656.7810
2669.0000;6654.4830
2670.0000;6644.5340
2671.0000;6634.8090
2672.0000;6620.7000
2673.0000;6601.0970
2674.0000;6586.4450
2675.0000;6583.1700
2676.0000;6588.0600
2677.0000;6592.2780
2678.0000;6600.5770
2679.0000;6612.9210
2680.0000;6623.6840
2681.0000;6628.8040
2682.0000;6628.3580
2683.0000;6627.4060
2684.0000;6622.6990
2685.0000;6616.2920
2686.0000;6605.8320
2687.0000;6589.8460
2688.0000;6574.3220
2689.0000;6560.9560
2690.0000;6555.8500
2691.0000;6557.2490
2692.0000;6566.6420
2693.0000;6578.8840
2694.0000;6587.8960
2695.0000;6588.3240
2696.0000;6581.9970
2697.0000;6576.4530
2698.0000;6572.0520
2699.0000;6571.1270
2700.0000;6571.7950
2701.0000;6571.0900
2702.0000;6566.1790
2703.0000;6550.9740
2704.0000;6538.4290
2705.0000;6539.7560
2706.0000;6551.2120
2707.0000;6562.3090
2708.0000;6571.0170
2709.0000;6577.2710
2710.0000;6572.3120
2711.0000;6548.5640
2712.0000;6530.9690
2713.0000;6550.7360
2714.0000;6580.3090
2715.0000;6580.0230
2716.0000;6570.4420
2717.0000;6579.2280
2718.0000;6590.9710
2719.0000;6594.1170
2720.0000;6591.9780
2721.0000;6590.0130
2722.0000;6590.7600
2723.0000;6603.6540
2724.0000;6610.2270
2725.0000;6585.6950
2726.0000;6563.9390
2727.0000;6585.3330
2728.0000;6612.9200
2729.0000;6600.5840
2730.0000;6578.9610
2731.0000;6585.8600
2732.0000;6594.7190
2733.0000;6578.1410
2734.0000;6555.2700
2735.0000;6544.1150
2736.0000;6538.3450
2737.0000;6524.4970
2738.0000;6519.0360
2739.0000;6530.0550
2740.0000;6543.6760
2741.0000;6540.8460
2742.0000;6534.7200
2743.0000;6540.1400
2744.0000;6541.8120
2745.0000;6527.1740
2746.0000;6511.6920
2747.0000;6507.5480
2748.0000;6514.8880
2749.0000;6531.3990
2750.0000;6544.7520
2751.0000;6541.1010
2752.0000;6532.2620
2753.0000;6530.2980
2754.0000;6531.1330
2755.0000;6534.1010
2756.0000;6532.3640
2757.0000;6521.2650
2758.0000;6502.1210
2759.0000;6477.7890
2760.0000;6462.7270
2761.0000;6467.0000
2762.0000;6476.4570
2763.0000;6477.1030
2764.0000;6484.7870
2765.0000;6505.1550
2766.0000;6521.6870
2767.0000;6523.8270
2768.0000;6508.6680
2769.0000;6478.5850
2770.0000;6462.7480
2771.0000;6479.1880
2772.0000;6491.2410
2773.0000;6480.2600
2774.0000;6473.7860
2775.0000;6482.3660
2776.0000;6487.0410
2777.0000;6480.6530
2778.0000;6465.6080
2779.0000;6445.2390
2780.0000;6436.4020
2781.0000;6446.2140
2782.0000;6462.2510
2783.0000;6476.0030
2784.0000;6473.8120
2785.0000;6453.9890
2786.0000;6447.8510
2787.0000;6461.6130
2788.0000;6471.2590
2789.0000;6470.9610
2790.0000;6470.4390
2791.0000;6469.4900
2792.0000;6463.8970
2793.0000;6455.9890
2794.0000;6456.0380
2795.0000;6461.7410
2796.0000;6454.8460
2797.0000;6439.1750
2798.0000;6434.2900
2799.0000;6441.1610
2800.0000;6448.5120
2801.0000;6451.8340
2802.0000;6440.2590
2803.0000;6425.2610
2804.0000;6435.5900
2805.0000;6463.3970
2806.0000;6485.7370
2807.0000;6493.4670
2808.0000;6484.2880
2809.0000;6462.8800
2810.0000;6447.7450
2811.0000;6444.0280
2812.0000;6452.2070
2813.0000;6467.9390
2814.0000;6475.9570
2815.0000;6479.8130
2816.0000;6490.4560
2817.0000;6491.4830
2818.0000;6470.4820
2819.0000;6448.5630
2820.0000;6447.9490
2821.0000;6460.3060
2822.0000;6472.3550
2823.0000;6488.3730
2824.0000;6508.1850
2825.0000;6517.9560
2826.0000;6511.2510
2827.0000;6488.1870
2828.0000;6454.1340
2829.0000;6438.6510
2830.0000;6459.4610
2831.0000;6486.0830
2832.0000;6498.1350
2833.0000;6503.3060
2834.0000;6501.4210
2835.0000;6497.3370
2836.0000;6494.7110
2837.0000;6498.9450
2838.0000;6508.4730
2839.0000;6503.9120
2840.0000;6483.6870
2841.0000;6467.3990
2842.0000;6462.5490
2843.0000;6461.4830
2844.0000;6466.7520
2845.0000;6480.7860
2846.0000;6495.6380
2847.0000;6494.5070
2848.0000;6480.2390
2849.0000;6477.1760
2850.0000;6478.7060
2851.0000;6465.2660
2852.0000;6450.3140
2853.0000;6452.4380
2854.0000;6465.7510
2855.0000;6471.9540
2856.0000;6474.8000
2857.0000;6479.2040
2858.0000;6482.1210
2859.0000;6486.5150
2860.0000;6484.1440
2861.0000;6468.3890
2862.0000;6458.6390
2863.0000;6471.3980
2864.0000;6481.0060
2865.0000;6466.9740
2866.0000;6458.2350
2867.0000;6471.5270
2868.0000;6479.2500
2869.0000;6467.9620
2870.0000;6449.6900
2871.0000;6432.4850
2872.0000;6425.0810
2873.0000;6431.2920
2874.0000;6433.6460
2875.0000;6430.7960
2876.0000;6443.0960
2877.0000;6466.3260
2878.0000;6468.2570
2879.0000;6450.9660
2880.0000;6449.7870
2881.0000;6462.8760
2882.0000;6473.5440
2883.0000;6473.4250
2884.0000;6449.0040
2885.0000;6421.0150
2886.0000;6428.4850
2887.0000;6452.6830
2888.0000;6453.3720
2889.0000;6444.8730
2890.0000;6443.6870
2891.0000;6442.7460
2892.0000;6436.0130
2893.0000;6438.6190
2894.0000;6461.8830
2895.0000;6478.8870
2896.0000;6470.1130
2897.0000;6463.8360
2898.0000;6475.4610
2899.0000;6481.8930
2900.0000;6474.6730
2901.0000;6460.3700
2902.0000;6446.2580
2903.0000;6457.1820
2904.0000;6490.8400
2905.0000;6496.1300
2906.0000;6470.3070
2907.0000;6457.5070
2908.0000;6459.4040
2909.0000;6451.9480
2910.0000;6440.6530
2911.0000;6433.6910
2912.0000;6435.5630
2913.0000;6448.6110
2914.0000;6459.7700
2915.0000;6445.3730
2916.0000;6427.8470
2917.0000;6436.0450
2918.0000;6454.0640
2919.0000;6465.5880
2920.0000;6469.3890
2921.0000;6463.7380
2922.0000;6458.1340
2923.0000;6460.9930
2924.0000;6454.3100
2925.0000;6433.3820
2926.0000;6421.9620
2927.0000;6428.0350
2928.0000;6429.2720
2929.0000;6422.1280
2930.0000;6416.7850
2931.0000;6416.0280
2932.0000;6419.4450
2933.0000;6424.7730
2934.0000;6425.8680
2935.0000;6420.8850
2936.0000;6409.5420
2937.0000;6397.8870
2938.0000;6396.1670
2939.0000;6397.7390
2940.0000;6386.9580
2941.0000;6381.0790
2942.0000;6394.9980
2943.0000;6404.5660
2944.0000;6390.1850
2945.0000;6375.4600
2946.0000;6374.2610
2947.0000;6377.2270
2948.0000;6381.6010
2949.0000;6396.4820
2950.0000;6420.0720
2951.0000;6437.8490
2952.0000;6440.4150
2953.0000;6423.8010
2954.0000;6397.1060
2955.0000;6394.5220
2956.0000;6407.3460
2957.0000;6392.0930
2958.0000;6371.2100
2959.0000;6383.5080
2960.0000;6410.0830
2961.0000;6418.2080
2962.0000;6420.9810
2963.0000;6434.4590
2964.0000;6430.8460
2965.0000;6395.9950
2966.0000;6363.8050
2967.0000;6358.5180
2968.0000;6352.7800
2969.0000;6339.1260
2970.0000;6332.0580
2971.0000;6336.6640
2972.0000;6346.4290
2973.0000;6359.5450
2974.0000;6376.1820
2975.0000;6386.6120
2976.0000;6374.8860
2977.0000;6355.0940
2978.0000;6362.6810
2979.0000;6382.6870
2980.0000;6390.4220
2981.0000;6384.6750
2982.0000;6364.3500
2983.0000;6349.5210
2984.0000;6357.9220
2985.0000;6366.6470
2986.0000;6361.5450
2987.0000;6368.0630
2988.0000;6390.7200
2989.0000;6395.5710
2990.0000;6373.9360
2991.0000;6344.7320
2992.0000;6322.1460
2993.0000;6321.8980
2994.0000;6343.3940
2995.0000;6356.4870
2996.0000;6366.1360
2997.0000;6387.4890
2998.0000;6401.5040
2999.0000;6396.2170
3000.0000;6383.3720
3001.0000;6381.5590
3002.0000;6377.2420
3003.0000;6364.7300
3004.0000;6349.3100
3005.0000;6336.7220
3006.0000;6346.2560
3007.0000;6375.6550
3008.0000;6377.2940
3009.0000;6349.9720
3010.0000;6335.8680
3011.0000;6340.8730
3012.0000;6360.1870
3013.0000;6380.2410
3014.0000;6373.4550
3015.0000;6359.7130
3016.0000;6369.8660
3017.0000;6384.9040
3018.0000;6391.4520
3019.0000;6381.1630
3020.0000;6351.3760
3021.0000;6331.9360
3022.0000;6337.4050
3023.0000;6337.4860
3024.0000;6328.0810
3025.0000;6321.0500
3026.0000;6321.5090
3027.0000;6333.6740
3028.0000;6350.0520
3029.0000;6353.7310
3030.0000;6345.0310
3031.0000;6332.8330
3032.0000;6319.0470
3033.0000;6308.2850
3034.0000;6302.9150
3035.0000;6302.2650
3036.0000;6300.0050
3037.0000;6294.1610
3038.0000;6305.5420
3039.0000;6334.8960
3040.0000;6358.2070
3041.0000;6364.8890
3042.0000;6366.0950
3043.0000;6355.9800
3044.0000;6333.7110
3045.0000;6313.6070
3046.0000;6319.0070
3047.0000;6325.0030
3048.0000;6298.8180
3049.0000;6280.3340
3050.0000;6293.5110
3051.0000;6301.9910
3052.0000;6290.1790
3053.0000;6278.7900
3054.0000;6274.0430
3055.0000;6272.3850
3056.0000;6276.1480
3057.0000;6288.3180
3058.0000;6298.4740
3059.0000;6289.8780
3060.0000;6269.2300
3061.0000;6251.5210
3062.0000;6241.9260
3063.0000;6243.5050
3064.0000;6256.7180
3065.0000;6275.6280
3066.0000;6279.8970
3067.0000;6260.4510
3068.0000;6236.5780
3069.0000;6218.5210
3070.0000;6212.6710
3071.0000;6223.6900
3072.0000;6244.9260
3073.0000;6263.2000
3074.0000;6255.2590
3075.0000;6248.5650
3076.0000;6280.4790
3077.0000;6298.6480
3078.0000;6271.0630
3079.0000;6259.7520
3080.0000;6288.4700
3081.0000;6298.2340
3082.0000;6281.1630
3083.0000;6283.8680
3084.0000;6299.5290
3085.0000;6291.2980
3086.0000;6270.8890
3087.0000;6260.1840
3088.0000;6267.4650
3089.0000;6299.4410
3090.0000;6320.9050
3091.0000;6304.0550
3092.0000;6290.3010
3093.0000;6298.1170
3094.0000;6302.5540
3095.0000;6299.7320
3096.0000;6298.8100
3097.0000;6299.1510
3098.0000;6296.4210
3099.0000;6292.2690
3100.0000;6290.6200
3101.0000;6286.2260
3102.0000;6271.0280
3103.0000;6270.0080
3104.0000;6296.9440
3105.0000;6312.6950
3106.0000;6300.3620
3107.0000;6287.0450
3108.0000;6280.8330
3109.0000;6278.4020
3110.0000;6283.7060
3111.0000;6301.0340
3112.0000;6312.6760
3113.0000;6297.5940
3114.0000;6265.7870
3115.0000;6230.3720
3116.0000;6233.2120
3117.0000;6290.5440
3118.0000;6313.0150
3119.0000;6277.8820
3120.0000;6269.4300
3121.0000;6291.0100
3122.0000;6301.7640
3123.0000;6296.8850
3124.0000;6277.0270
3125.0000;6249.7340
3126.0000;6230.0990
3127.0000;6215.6360
3128.0000;6203.9470
3129.0000;6205.4640
3130.0000;6219.3070
3131.0000;6218.6950
3132.0000;6203.0630
3133.0000;6200.8760
3134.0000;6211.6330
3135.0000;6223.9070
3136.0000;6234.6710
3137.0000;6244.4910
3138.0000;6237.2470
3139.0000;6206.7660
3140.0000;6190.9380
3141.0000;6208.3340
3142.0000;6220.6510
3143.0000;6218.7190
3144.0000;6219.6460
3145.0000;6215.3540
3146.0000;6183.5040
3147.0000;6158.3840
3148.0000;6184.3590
3149.0000;6211.4980
3150.0000;6194.7390
3151.0000;6170.5920
3152.0000;6157.7970
3153.0000;6159.2870
3154.0000;6173.8460
3155.0000;6173.6970
3156.0000;6167.7760
3157.0000;6191.1730
3158.0000;6213.2170
3159.0000;6192.7390
3160.0000;6171.8740
3161.0000;6187.8550
3162.0000;6198.2320
3163.0000;6188.1230
3164.0000;6193.9090
3165.0000;6213.7980
3166.0000;6212.7150
3167.0000;6197.1370
3168.0000;6197.4220
3169.0000;6207.0010
3170.0000;6220.3750
3171.0000;6213.2680
3172.0000;6171.7190
3173.0000;6156.5130
3174.0000;6188.9310
3175.0000;6214.9050
3176.0000;6222.6440
3177.0000;6231.6810
3178.0000;6230.1880
3179.0000;6206.9940
3180.0000;6188.7560
3181.0000;6206.3700
3182.0000;6208.1890
3183.0000;6166.8680
3184.0000;6155.9080
3185.0000;6188.3320
3186.0000;6186.5410
3187.0000;6160.9150
3188.0000;6171.3550
3189.0000;6201.6910
3190.0000;6222.3610
3191.0000;6233.0280
3192.0000;6233.9000
3193.0000;6230.0460
3194.0000;6227.5930
3195.0000;6236.6990
3196.0000;6249.6770
3197.0000;6232.6500
3198.0000;6200.4570
3199.0000;6185.8590
3200.0000;6199.2420
3201.0000;6242.2320
3202.0000;6261.0380
3203.0000;6224.5870
3204.0000;6195.0430
3205.0000;6194.6100
3206.0000;6210.7540
3207.0000;6227.8380
3208.0000;6206.6690
3209.0000;6176.2290
3210.0000;6182.5340
3211.0000;6180.1050
3212.0000;6140.5360
3213.0000;6122.2450
3214.0000;6143.7510
3215.0000;6166.6690
3216.0000;6176.3340
3217.0000;6162.3090
3218.0000;6137.9920
3219.0000;6131.7520
3220.0000;6145.9740
3221.0000;6178.8530
3222.0000;6190.8470
3223.0000;6168.4430
3224.0000;6170.7800
3225.0000;6192.5970
3226.0000;6178.4190
3227.0000;6151.4250
3228.0000;6160.9100
3229.0000;6170.2300
3230.0000;6148.1420
3231.0000;6125.2690
3232.0000;6115.6860
3233.0000;6109.6230
3234.0000;6108.0210
3235.0000;6105.1170
3236.0000;6106.9590
3237.0000;6121.6740
3238.0000;6128.8020
3239.0000;6110.1430
3240.0000;6108.5310
3241.0000;6137.0880
3242.0000;6130.7310
3243.0000;6091.8780
3244.0000;6090.3020
3245.0000;6107.3370
3246.0000;6089.6050
3247.0000;6076.6570
3248.0000;6095.4640
3249.0000;6127.4260
3250.0000;6156.0890
3251.0000;6166.4180
3252.0000;6154.0250
3253.0000;6147.1980
3254.0000;6141.9380
3255.0000;6134.2740
3256.0000;6120.0900
3257.0000;6096.4960
3258.0000;6093.1770
3259.0000;6118.4310
3260.0000;6141.0570
3261.0000;6149.1130
3262.0000;6144.8980
3263.0000;6125.3940
3264.0000;6095.6270
3265.0000;6083.8590
3266.0000;6107.1040
3267.0000;6125.0390
3268.0000;6125.1190
3269.0000;6134.8640
3270.0000;6145.2390
3271.0000;6136.4620
3272.0000;6123.0350
3273.0000;6126.5570
3274.0000;6128.5020
3275.0000;6120.8020
3276.0000;6127.8670
3277.0000;6146.7920
3278.0000;6145.1690
3279.0000;6128.8000
3280.0000;6122.0700
3281.0000;6118.3380
3282.0000;6113.2260
3283.0000;6095.8860
3284.0000;6069.6870
3285.0000;6075.7710
3286.0000;6104.6750
3287.0000;6095.5210
3288.0000;6071.3300
3289.0000;6069.8560
3290.0000;6081.3840
3291.0000;6097.2840
3292.0000;6093.7670
3293.0000;6067.2050
3294.0000;6042.8320
3295.0000;6035.3280
3296.0000;6053.3150
3297.0000;6070.1100
3298.0000;6051.8210
3299.0000;6049.2160
3300.0000;6076.7260
3301.0000;6075.6960
3302.0000;6051.7430
3303.0000;6059.2570
3304.0000;6084.0890
3305.0000;6099.6950
3306.0000;6106.7890
3307.0000;6104.1470
3308.0000;6093.3970
3309.0000;6076.8850
3310.0000;6056.3900
3311.0000;6040.0000
3312.0000;6026.0490
3313.0000;6033.5120
3314.0000;6067.0040
3315.0000;6082.2520
3316.0000;6063.0020
3317.0000;6049.5590
3318.0000;6049.5300
3319.0000;6065.8780
3320.0000;6073.6430
3321.0000;6042.4790
3322.0000;6021.1470
3323.0000;6035.1580
3324.0000;6041.0150
3325.0000;6028.0750
3326.0000;5986.8520
3327.0000;5963.4230
3328.0000;6020.7340
3329.0000;6070.5470
3330.0000;6052.8070
3331.0000;6037.6380
3332.0000;6041.4130
3333.0000;6049.7250
3334.0000;6058.2790
3335.0000;6061.0520
3336.0000;6054.5870
3337.0000;6039.8680
3338.0000;6042.2830
3339.0000;6065.3910
3340.0000;6077.5100
3341.0000;6074.5220
3342.0000;6065.4060
3343.0000;6057.1780
3344.0000;6060.4340
3345.0000;6062.7420
3346.0000;6059.2810
3347.0000;6050.6030
3348.0000;6046.4750
3349.0000;6064.9780
3350.0000;6092.1460
3351.0000;6109.6570
3352.0000;6111.8450
3353.0000;6097.7880
3354.0000;6086.4560
3355.0000;6080.4510
3356.0000;6070.0620
3357.0000;6063.4870
3358.0000;6063.9840
3359.0000;6075.9010
3360.0000;6093.7280
3361.0000;6085.4660
3362.0000;6059.2520
3363.0000;6058.6690
3364.0000;6073.0480
3365.0000;6083.6510
3366.0000;6088.6060
3367.0000;6084.7430
3368.0000;6071.8490
3369.0000;6063.4330
3370.0000;6091.5530
3371.0000;6121.6850
3372.0000;6109.9950
3373.0000;6099.7570
3374.0000;6107.8970
3375.0000;6094.4090
3376.0000;6066.2230
3377.0000;6053.3340
3378.0000;6063.5390
3379.0000;6094.5910
3380.0000;6118.6430
3381.0000;6117.5320
3382.0000;6116.5870
3383.0000;6114.8200
3384.0000;6106.7240
3385.0000;6102.4640
3386.0000;6112.7220
3387.0000;6105.1700
3388.0000;6075.5430
3389.0000;6078.6480
3390.0000;6103.4770
3391.0000;6097.8940
3392.0000;6086.1250
3393.0000;6090.6280
3394.0000;6092.0130
3395.0000;6085.2870
3396.0000;6080.1070
3397.0000;6072.0000
3398.0000;6043.2950
3399.0000;6041.0580
3400.0000;6092.3740
3401.0000;6103.9740
3402.0000;6058.2350
3403.0000;6040.2190
3404.0000;6043.0660
3405.0000;6030.8500
3406.0000;6029.3490
3407.0000;6048.2220
3408.0000;6072.8760
3409.0000;6089.3270
3410.0000;6079.7680
3411.0000;6060.7420
3412.0000;6065.4630
3413.0000;6064.4070
3414.0000;6047.7930
3415.0000;6049.4080
3416.0000;6066.4040
3417.0000;6065.3610
3418.0000;6062.5220
3419.0000;6075.6590
3420.0000;6076.6820
3421.0000;6061.3900
3422.0000;6071.0650
3423.0000;6092.9830
3424.0000;6089.1340
3425.0000;6081.3690
3426.0000;6088.1140
3427.0000;6090.7560
3428.0000;6085.6380
3429.0000;6079.0370
3430.0000;6076.9570
3431.0000;6085.2430
3432.0000;6099.0550
3433.0000;6110.1060
3434.0000;6097.6270
3435.0000;6073.3710
3436.0000;6082.2340
3437.0000;6104.1140
3438.0000;6111.8680
3439.0000;6111.0010
3440.0000;6102.2260
3441.0000;6088.9670
3442.0000;6078.8190
3443.0000;6082.1840
3444.0000;6077.7280
3445.0000;6052.6280
3446.0000;6065.3330
3447.0000;6108.4160
3448.0000;6106.7640
3449.0000;6083.8270
3450.0000;6082.5010
3451.0000;6078.3980
3452.0000;6067.2860
3453.0000;6066.9270
3454.0000;6075.0000
3455.0000;6075.8360
3456.0000;6074.8210
3457.0000;6075.4760
3458.0000;6077.1000
3459.0000;6080.9090
3460.0000;6094.1660
3461.0000;6098.5040
3462.0000;6072.7200
3463.0000;6056.8940
3464.0000;6069.9500
3465.0000;6088.4730
3466.0000;6101.6000
3467.0000;6100.0720
3468.0000;6093.2370
3469.0000;6093.3130
3470.0000;6093.4980
3471.0000;6092.0530
3472.0000;6085.6620
3473.0000;6080.8670
3474.0000;6085.1000
3475.0000;6083.8880
3476.0000;6073.3240
3477.0000;6071.5360
3478.0000;6075.1540
3479.0000;6070.0000
3480.0000;6064.1690
3481.0000;6062.3210
3482.0000;6060.1040
3483.0000;6056.6230
3484.0000;6045.5820
3485.0000;6046.3530
3486.0000;6074.0530
3487.0000;6096.4490
3488.0000;6100.5160
3489.0000;6112.1130
3490.0000;6119.3920
3491.0000;6109.3480
3492.0000;6110.8960
3493.0000;6135.3400
3494.0000;6140.9610
3495.0000;6126.8000
3496.0000;6113.2300
3497.0000;6121.8600
3498.0000;6163.6750
3499.0000;6171.8610
3500.0000;6138.2350
3501.0000;6123.2190
3502.0000;6106.6940
3503.0000;6068.4710
3504.0000;6050.9510
3505.0000;6068.6240
3506.0000;6086.1670
3507.0000;6096.4580
3508.0000;6096.2470
3509.0000;6074.8130
3510.0000;6039.9030
3511.0000;6037.5250
3512.0000;6065.1890
3513.0000;6083.0460
3514.0000;6090.2200
3515.0000;6084.8120
3516.0000;6081.4440
3517.0000;6081.1750
3518.0000;6074.8970
3519.0000;6065.8950
3520.0000;6058.4640
3521.0000;6068.5470
3522.0000;6094.8370
3523.0000;6118.3690
3524.0000;6123.5830
3525.0000;6102.4060
3526.0000;6093.7730
3527.0000;6105.7730
3528.0000;6080.5210
3529.0000;6047.8260
3530.0000;6057.8030
3531.0000;6084.4330
3532.0000;6105.1130
3533.0000;6101.2380
3534.0000;6081.4060
3535.0000;6084.3560
3536.0000;6081.9890
3537.0000;6062.5920
3538.0000;6064.8050
3539.0000;6088.0000
3540.0000;6105.9570
3541.0000;6116.2180
3542.0000;6115.6820
3543.0000;6090.5900
3544.0000;6057.9730
3545.0000;6065.9110
3546.0000;6088.7380
3547.0000;6092.2780
3548.0000;6070.2100
3549.0000;6037.9740
3550.0000;6046.6370
3551.0000;6070.8650
3552.0000;6073.3460
3553.0000;6052.0450
3554.0000;6020.0160
3555.0000;6029.4880
3556.0000;6050.2560
3557.0000;6032.7950
3558.0000;6029.1750
3559.0000;6049.1750
3560.0000;6051.5670
3561.0000;6043.7890
3562.0000;6043.1320
3563.0000;6036.6070
3564.0000;6026.9800
3565.0000;6039.1320
3566.0000;6060.5460
3567.0000;6064.8460
3568.0000;6070.5640
3569.0000;6081.7380
3570.0000;6081.4950
3571.0000;6075.3830
3572.0000;6080.7360
3573.0000;6073.6560
3574.0000;6048.1490
3575.0000;6024.6120
3576.0000;6018.6390
3577.0000;6039.6180
3578.0000;6043.3670
3579.0000;6013.3130
3580.0000;6006.6830
3581.0000;6024.4340
3582.0000;6045.5850
3583.0000;6066.7860
3584.0000;6076.0780
3585.0000;6052.4290
3586.0000;6028.5860
3587.0000;6070.0610
3588.0000;6097.5090
3589.0000;6072.8570
3590.0000;6067.1000
3591.0000;6072.1940
3592.0000;6060.3640
3593.0000;6061.8590
3594.0000;6083.4570
3595.0000;6086.3380
3596.0000;6076.4230
3597.0000;6077.5490
3598.0000;6081.2180
3599.0000;6086.1980
3600.0000;6104.4960
3601.0000;6119.8240
3602.0000;6109.1930
3603.0000;6105.2360
3604.0000;6118.8750
3605.0000;6120.7710
3606.0000;6111.9270
3607.0000;6102.4100
3608.0000;6090.9760
3609.0000;6084.7510
3610.0000;6100.2500
3611.0000;6125.9680
3612.0000;6139.0180
3613.0000;6142.3590
3614.0000;6136.5880
3615.0000;6129.9620
3616.0000;6126.1550
3617.0000;6128.5200
3618.0000;6141.3030
3619.0000;6154.9290
3620.0000;6142.5910
3621.0000;6126.1320
3622.0000;6131.2580
3623.0000;6123.8500
3624.0000;6107.3470
3625.0000;6111.8590
3626.0000;6133.2670
3627.0000;6158.6830
3628.0000;6146.8780
3629.0000;6113.8000
3630.0000;6134.7050
3631.0000;6153.8860
3632.0000;6137.5110
3633.0000;6152.8540
3634.0000;6181.7710
3635.0000;6169.5290
3636.0000;6158.1970
3637.0000;6170.5580
3638.0000;6178.9400
3639.0000;6175.5090
3640.0000;6157.6520
3641.0000;6142.8780
3642.0000;6142.1060
3643.0000;6148.7480
3644.0000;6157.2060
3645.0000;6156.9200
3646.0000;6161.6390
3647.0000;6171.8520
3648.0000;6176.8450
3649.0000;6174.3120
3650.0000;6166.2490
3651.0000;6155.5660
3652.0000;6149.2260
3653.0000;6156.7600
3654.0000;6157.4020
3655.0000;6136.6480
3656.0000;6125.4120
3657.0000;6124.2420
3658.0000;6110.9090
3659.0000;6111.3220
3660.0000;6133.1910
3661.0000;6154.9840
3662.0000;6158.7580
3663.0000;6130.6250
3664.0000;6122.9200
3665.0000;6146.6470
3666.0000;6141.9670
3667.0000;6124.7590
3668.0000;6118.7890
3669.0000;6134.7570
3670.0000;6161.1790
3671.0000;6154.0260
3672.0000;6140.9010
3673.0000;6144.8550
3674.0000;6121.1360
3675.0000;6093.1030
3676.0000;6111.3730
3677.0000;6141.3170
3678.0000;6154.5910
3679.0000;6155.4160
3680.0000;6143.9980
3681.0000;6132.8960
3682.0000;6117.9300
3683.0000;6107.2630
3684.0000;6116.8470
3685.0000;6132.1420
3686.0000;6132.9070
3687.0000;6116.4790
3688.0000;6101.9720
3689.0000;6130.5190
3690.0000;6149.4150
3691.0000;6131.5720
3692.0000;6145.9380
3693.0000;6173.3130
3694.0000;6176.0390
3695.0000;6152.5050
3696.0000;6117.9380
3697.0000;6112.5390
3698.0000;6128.6090
3699.0000;6144.1600
3700.0000;6147.0360
3701.0000;6142.8310
3702.0000;6161.0840
3703.0000;6172.6090
3704.0000;6165.5010
3705.0000;6176.1270
3706.0000;6187.9400
3707.0000;6176.0730
3708.0000;6174.9200
3709.0000;6190.5910
3710.0000;6203.8030
3711.0000;6208.3100
3712.0000;6201.2580
3713.0000;6186.5580
3714.0000;6173.5060
3715.0000;6173.7840
3716.0000;6174.9600
3717.0000;6168.0930
3718.0000;6143.6890
3719.0000;6134.2250
3720.0000;6167.8660
3721.0000;6184.2560
3722.0000;6170.7490
3723.0000;6151.8500
3724.0000;6151.8650
3725.0000;6179.4010
3726.0000;6182.5110
3727.0000;6164.4600
3728.0000;6146.2150
3729.0000;6166.3710
3730.0000;6213.0940
3731.0000;6208.5760
3732.0000;6187.5110
3733.0000;6184.9810
3734.0000;6174.8350
3735.0000;6162.3310
3736.0000;6155.8060
3737.0000;6160.8600
3738.0000;6170.2990
3739.0000;6151.1980
3740.0000;6136.6080
3741.0000;6153.5270
3742.0000;6157.2960
3743.0000;6148.0200
3744.0000;6145.3750
3745.0000;6147.6510
3746.0000;6154.2970
3747.0000;6164.4560
3748.0000;6168.5880
3749.0000;6160.3040
3750.0000;6154.1940
3751.0000;6150.2580
3752.0000;6137.5710
3753.0000;6145.5690
3754.0000;6175.6860
3755.0000;6185.2080
3756.0000;6178.7480
3757.0000;6171.4270
3758.0000;6168.9920
3759.0000;6173.8200
3760.0000;6181.0570
3761.0000;6192.6040
3762.0000;6204.0060
3763.0000;6209.9150
3764.0000;6206.1780
3765.0000;6196.4860
3766.0000;6198.1470
3767.0000;6207.5360
3768.0000;6205.5360
3769.0000;6207.8090
3770.0000;6218.4010
3771.0000;6225.2980
3772.0000;6237.2950
3773.0000;6260.0470
3774.0000;6281.5400
3775.0000;6291.5330
3776.0000;6290.2060
3777.0000;6279.4060
3778.0000;6269.7160
3779.0000;6278.8220
3780.0000;6288.5320
3781.0000;6282.9170
3782.0000;6279.3420
3783.0000;6273.5720
3784.0000;6256.8000
3785.0000;6259.0950
3786.0000;6279.7650
3787.0000;6282.8270
3788.0000;6276.7300
3789.0000;6272.8930
3790.0000;6293.8180
3791.0000;6317.9320
3792.0000;6315.3370
3793.0000;6311.1430
3794.0000;6308.7010
3795.0000;6301.0070
3796.0000;6302.3610
3797.0000;6311.7500
3798.0000;6295.1450
3799.0000;6270.6460
3800.0000;6261.5160
3801.0000;6242.4680
3802.0000;6232.0060
3803.0000;6256.3160
3804.0000;6276.1080
3805.0000;6273.6110
3806.0000;6265.3350
3807.0000;6266.8750
3808.0000;6285.3260
3809.0000;6277.7890
3810.0000;6262.6990
3811.0000;6270.6120
3812.0000;6280.7650
3813.0000;6284.4110
3814.0000;6279.5470
3815.0000;6252.7480
3816.0000;6216.1980
3817.0000;6215.0360
3818.0000;6234.1170
3819.0000;6245.6690
3820.0000;6229.0110
3821.0000;6205.3460
3822.0000;6214.0100
3823.0000;6227.2880
3824.0000;6234.1480
3825.0000;6232.9630
3826.0000;6237.8470
3827.0000;6251.5740
3828.0000;6251.6120
3829.0000;6239.2200
3830.0000;6223.8060
3831.0000;6227.2550
3832.0000;6235.1670
3833.0000;6217.7530
3834.0000;6226.1640
3835.0000;6257.6330
3836.0000;6269.6230
3837.0000;6264.4340
3838.0000;6249.1200
3839.0000;6239.4820
3840.0000;6237.2690
3841.0000;6238.6670
3842.0000;6213.9120
3843.0000;6192.9030
3844.0000;6215.9500
3845.0000;6247.7480
3846.0000;6257.8040
3847.0000;6217.4750
3848.0000;6214.3760
3849.0000;6262.8410
3850.0000;6241.9030
3851.0000;6214.5620
3852.0000;6227.9690
3853.0000;6223.5080
3854.0000;6222.1910
3855.0000;6247.7790
3856.0000;6257.2940
3857.0000;6252.2730
3858.0000;6260.7240
3859.0000;6268.2420
3860.0000;6271.6000
3861.0000;6279.1470
3862.0000;6281.4830
3863.0000;6277.2000
3864.0000;6279.7580
3865.0000;6288.2520
3866.0000;6298.2680
3867.0000;6299.4850
3868.0000;6296.1910
3869.0000;6299.6690
3870.0000;6291.9650
3871.0000;6281.1940
3872.0000;6291.8170
3873.0000;6282.6430
3874.0000;6254.8490
3875.0000;6258.9990
3876.0000;6268.7800
3877.0000;6264.4790
3878.0000;6247.0650
3879.0000;6239.5180
3880.0000;6256.6770
3881.0000;6252.3030
3882.0000;6244.3350
3883.0000;6262.6740
3884.0000;6261.6200
3885.0000;6252.0390
3886.0000;6276.7120
3887.0000;6273.9000
3888.0000;6246.3360
3889.0000;6268.0590
3890.0000;6279.7100
3891.0000;6257.5230
3892.0000;6246.0340
3893.0000;6226.6550
3894.0000;6197.5580
3895.0000;6218.8750
3896.0000;6249.5350
3897.0000;6236.4320
3898.0000;6232.1540
3899.0000;6239.2080
3900.0000;6247.3770
3901.0000;6258.7000
3902.0000;6261.4450
3903.0000;6241.9640
3904.0000;6210.5280
3905.0000;6194.9440
3906.0000;6239.2340
3907.0000;6269.7580
3908.0000;6251.1040
3909.0000;6249.8470
3910.0000;6243.3630
3911.0000;6227.3920
3912.0000;6238.2040
3913.0000;6259.2550
3914.0000;6266.4320
3915.0000;6280.1200
3916.0000;6280.6670
3917.0000;6251.6300
3918.0000;6252.6100
3919.0000;6279.4050
3920.0000;6290.2900
3921.0000;6291.9650
3922.0000;6288.7900
3923.0000;6294.2380
3924.0000;6296.4710
3925.0000;6296.3370
3926.0000;6311.0640
3927.0000;6313.6080
3928.0000;6298.1170
3929.0000;6296.4170
3930.0000;6302.4900
3931.0000;6308.7650
3932.0000;6309.0140
3933.0000;6306.9310
3934.0000;6305.0790
3935.0000;6281.9360
3936.0000;6265.7080
3937.0000;6280.8840
3938.0000;6268.5920
3939.0000;6251.4310
3940.0000;6266.3740
3941.0000;6259.6380
3942.0000;6249.8540
3943.0000;6278.4750
3944.0000;6281.1210
3945.0000;6265.5300
3946.0000;6283.4100
3947.0000;6283.9180
3948.0000;6269.7250
3949.0000;6289.4430
3950.0000;6285.7270
3951.0000;6256.6000
3952.0000;6263.5000
3953.0000;6266.9160
3954.0000;6251.2480
3955.0000;6235.8850
3956.0000;6230.5110
3957.0000;6238.9660
3958.0000;6252.2320
3959.0000;6240.1040
3960.0000;6199.5080
3961.0000;6204.9560
3962.0000;6216.5680
3963.0000;6203.7090
3964.0000;6238.2400
3965.0000;6274.7770
3966.0000;6264.0450
3967.0000;6232.2170
3968.0000;6200.6020
3969.0000;6195.7240
3970.0000;6203.6250
3971.0000;6205.6340
3972.0000;6181.2580
3973.0000;6155.4630
3974.0000;6150.0860
3975.0000;6174.9650
3976.0000;6179.6770
3977.0000;6160.8580
3978.0000;6141.1220
3979.0000;6133.1720
3980.0000;6143.1800
3981.0000;6162.6110
3982.0000;6181.3690
3983.0000;6187.1270
3984.0000;6175.8930
3985.0000;6183.9930
3986.0000;6196.1410
3987.0000;6160.4790
3988.0000;6165.8050
3989.0000;6207.9820
3990.0000;6201.8120
3991.0000;6196.8770
3992.0000;6202.0920
3993.0000;6199.5250
3994.0000;6176.6020
3995.0000;6149.9180
3996.0000;6163.1330
3997.0000;6169.4180
3998.0000;6165.6500
3999.0000;6200.5210
4000.0000;6224.7710
4001.0000;6214.0980
4002.0000;6181.8090
4003.0000;6169.8440
4004.0000;6189.9710
4005.0000;6196.0140
4006.0000;6200.9090
4007.0000;6208.3340
4008.0000;6219.5690
4009.0000;6228.1440
4010.0000;6235.6650
4011.0000;6261.4170
4012.0000;6253.1190
4013.0000;6212.7090
4014.0000;6216.1060
4015.0000;6223.4390
4016.0000;6225.9130
4017.0000;6262.4100
4018.0000;6261.1080
4019.0000;6220.2860
4020.0000;6243.8830
4021.0000;6254.2900
4022.0000;6230.7120
4023.0000;6223.7830
4024.0000;6220.4300
4025.0000;6218.3690
4026.0000;6221.4180
4027.0000;6227.3720
4028.0000;6224.3560
4029.0000;6192.6230
4030.0000;6169.1760
4031.0000;6171.4620
4032.0000;6185.3650
4033.0000;6176.0420
4034.0000;6143.1870
4035.0000;6124.7700
4036.0000;6130.0620
4037.0000;6145.2920
4038.0000;6129.6570
4039.0000;6135.9140
4040.0000;6154.1990
4041.0000;6129.7870
4042.0000;6094.6040
4043.0000;6082.2540
4044.0000;6117.9530
4045.0000;6143.9550
4046.0000;6145.2830
4047.0000;6142.1980
4048.0000;6148.4500
4049.0000;6166.5760
4050.0000;6188.5210
4051.0000;6181.9470
4052.0000;6166.9450
4053.0000;6185.5940
4054.0000;6203.1070
4055.0000;6210.5850
4056.0000;6209.0610
4057.0000;6187.7160
4058.0000;6181.8020
4059.0000;6219.4950
4060.0000;6210.0930
4061.0000;6193.3530
4062.0000;6216.0060
4063.0000;6204.0720
4064.0000;6185.1520
4065.0000;6191.3910
4066.0000;6206.4370
4067.0000;6225.0450
4068.0000;6235.0030
4069.0000;6217.0960
4070.0000;6210.0840
4071.0000;6233.3920
4072.0000;6245.0350
4073.0000;6242.3510
4074.0000;6230.9230
4075.0000;6231.6720
4076.0000;6219.9020
4077.0000;6193.5520
4078.0000;6173.7460
4079.0000;6161.7400
4080.0000;6152.3060
4081.0000;6128.0100
4082.0000;6098.0940
4083.0000;6078.8250
4084.0000;6081.7870
4085.0000;6077.5090
4086.0000;6081.8160
4087.0000;6117.1130
4088.0000;6111.3130
4089.0000;6086.5950
4090.0000;6089.5700
4091.0000;6091.1250
4092.0000;6089.1840
4093.0000;6080.2810
4094.0000;6045.3960
4095.0000;6026.3530
4096.0000;6047.9540
4097.0000;6064.4540
4098.0000;6076.3440
4099.0000;6079.2480
4100.0000;6075.1310
4101.0000;6054.9630
4102.0000;6035.1220
4103.0000;6050.8840
4104.0000;6061.8980
4105.0000;6051.4010
4106.0000;6026.9480
4107.0000;6010.9150
4108.0000;5994.9490
4109.0000;5956.4190
4110.0000;5937.4340
4111.0000;5917.3330
4112.0000;5867.5550
4113.0000;5827.1210
4114.0000;5786.1080
4115.0000;5734.6430
4116.0000;5680.4980
4117.0000;5638.2910
4118.0000;5600.8000
4119.0000;5519.2100
4120.0000;5450.4790
4121.0000;5411.7190
4122.0000;5361.4580
4123.0000;5316.0100
4124.0000;5269.3110
4125.0000;5198.6540
4126.0000;5135.7640
4127.0000;5086.7210
4128.0000;5033.7710
4129.0000;4965.3980
4130.0000;4907.1510
4131.0000;4871.1350
4132.0000;4809.9730
4133.0000;4747.5770
4134.0000;4687.3510
4135.0000;4570.7940
4136.0000;4479.7150
4137.0000;4436.3910
4138.0000;4363.9720
4139.0000;4297.8710
4140.0000;4238.4260
4141.0000;4160.5370
4142.0000;4075.3000
4143.0000;3997.1860
4144.0000;3928.4370
4145.0000;3849.0490
4146.0000;3788.9570
4147.0000;3759.1570
4148.0000;3724.4210
4149.0000;3659.2990
4150.0000;3571.7110
4151.0000;3515.1560
4152.0000;3487.7720
4153.0000;3471.8240
4154.0000;3431.9040
4155.0000;3392.9700
4156.0000;3354.2120
4157.0000;3307.7050
4158.0000;3273.5990
4159.0000;3232.5450
4160.0000;3174.1200
4161.0000;3156.5640
4162.0000;3136.2400
4163.0000;3091.1010
4164.0000;3054.5660
4165.0000;3029.4290
4166.0000;3013.8040
4167.0000;2991.8100
4168.0000;2941.2970
4169.0000;2905.8530
4170.0000;2927.3020
4171.0000;2916.6130
4172.0000;2904.6510
4173.0000;2910.0790
4174.0000;2883.3430
4175.0000;2871.2180
4176.0000;2879.8420
4177.0000;2861.3960
4178.0000;2845.9660
4179.0000;2838.9850
4180.0000;2831.0420
4181.0000;2811.1120
4182.0000;2793.1210
4183.0000;2789.3310
4184.0000;2783.2330
4185.0000;2775.2350
4186.0000;2772.6950
4187.0000;2792.7870
4188.0000;2813.2510
4189.0000;2819.5350
4190.0000;2812.3990
4191.0000;2816.7050
4192.0000;2824.0790
4193.0000;2818.5620
4194.0000;2795.6930
4195.0000;2789.8190
4196.0000;2805.0580
4197.0000;2784.8750
4198.0000;2769.4420
4199.0000;2769.9250
4200.0000;2772.7040
4201.0000;2758.8070
4202.0000;2747.8050
4203.0000;2757.4680
4204.0000;2752.8750
4205.0000;2764.6010
4206.0000;2788.9250
4207.0000;2772.0400
4208.0000;2763.6170
4209.0000;2778.1050
4210.0000;2800.5220
4211.0000;2787.4250
4212.0000;2768.8900
4213.0000;2775.3620
4214.0000;2758.9920
4215.0000;2761.6200
4216.0000;2778.8790
4217.0000;2754.7660
4218.0000;2728.3530
4219.0000;2721.9510
4220.0000;2739.9830
4221.0000;2748.8780
4222.0000;2758.0330
4223.0000;2769.7600
4224.0000;2762.7390
4225.0000;2752.0530
4226.0000;2750.3800
4227.0000;2759.4340
4228.0000;2748.4650
4229.0000;2739.5450
4230.0000;2751.8650
4231.0000;2732.6770
4232.0000;2727.6160
4233.0000;2749.4830
4234.0000;2761.7720
4235.0000;2749.9550
4236.0000;2462.7190
4237.0000;1749.8790
4238.0000;931.2684
