Raman Shift ; Dark Subtracted #1
-2.0000;2353.1240
-1.0000;2135.4690
0.0000;1862.9450
1.0000;1548.1110
2.0000;1200.3790
3.0000;866.8956
4.0000;600.9067
5.0000;376.0547
6.0000;222.4709
7.0000;171.0553
8.0000;137.9672
9.0000;123.3177
10.0000;142.1487
11.0000;140.3486
12.0000;96.2899
13.0000;48.1140
14.0000;12.3197
15.0000;0.0793
16.0000;5.2723
17.0000;10.8102
18.0000;8.6914
19.0000;8.1766
20.0000;8.8864
21.0000;10.9263
22.0000;13.6728
23.0000;15.4013
24.0000;14.5836
25.0000;12.8961
26.0000;12.2746
27.0000;15.1650
28.0000;18.7350
29.0000;20.1980
30.0000;16.4187
31.0000;10.5751
32.0000;6.7035
33.0000;8.0069
34.0000;12.9233
35.0000;18.7778
36.0000;24.4070
37.0000;28.5248
38.0000;30.0133
39.0000;26.9909
40.0000;20.7205
41.0000;15.6682
42.0000;16.9652
43.0000;21.8228
44.0000;25.7431
45.0000;23.8266
46.0000;18.4373
47.0000;13.1642
48.0000;11.7622
49.0000;12.9792
50.0000;14.1026
51.0000;10.3882
52.0000;5.2564
53.0000;3.4355
54.0000;8.8631
55.0000;20.8086
56.0000;35.0787
57.0000;47.9478
58.0000;58.3677
59.0000;67.8547
60.0000;76.6727
61.0000;84.3353
62.0000;97.7042
63.0000;126.2588
64.0000;164.0605
65.0000;205.8569
66.0000;246.6399
67.0000;281.9535
68.0000;321.9224
69.0000;381.6399
70.0000;450.8249
71.0000;526.4156
72.0000;618.8055
73.0000;710.7138
74.0000;795.1087
75.0000;882.9786
76.0000;950.3532
77.0000;1013.0360
78.0000;1107.4500
79.0000;1213.4090
80.0000;1314.9350
81.0000;1417.2140
82.0000;1499.9730
83.0000;1578.9180
84.0000;1689.8840
85.0000;1814.4320
86.0000;1936.8100
87.0000;2069.8100
88.0000;2189.1440
89.0000;2299.9780
90.0000;2433.1830
91.0000;2566.9550
92.0000;2689.0180
93.0000;2823.3880
94.0000;2945.5730
95.0000;3060.2400
96.0000;3204.8810
97.0000;3359.7350
98.0000;3501.7300
99.0000;3651.9770
100.0000;3787.1720
101.0000;3890.9850
102.0000;4007.2350
103.0000;4114.2990
104.0000;4202.5670
105.0000;4298.1560
106.0000;4386.5970
107.0000;4466.1540
108.0000;4576.5590
109.0000;4698.6150
110.0000;4810.5520
111.0000;4922.7120
112.0000;5017.7610
113.0000;5084.7020
114.0000;5157.6820
115.0000;5224.1450
116.0000;5278.2340
117.0000;5344.5190
118.0000;5416.2930
119.0000;5479.5850
120.0000;5540.6010
121.0000;5590.1930
122.0000;5628.5680
123.0000;5675.1500
124.0000;5724.9880
125.0000;5771.7080
126.0000;5825.7810
127.0000;5881.5470
128.0000;5928.8540
129.0000;5971.5740
130.0000;6002.4560
131.0000;6021.0670
132.0000;6041.1780
133.0000;6059.7290
134.0000;6078.8640
135.0000;6112.5620
136.0000;6159.7680
137.0000;6207.2880
138.0000;6246.6790
139.0000;6271.3450
140.0000;6285.7850
141.0000;6309.1490
142.0000;6340.0910
143.0000;6366.4790
144.0000;6390.5340
145.0000;6405.7000
146.0000;6416.2920
147.0000;6435.5800
148.0000;6460.7030
149.0000;6483.9050
150.0000;6502.2020
151.0000;6511.9770
152.0000;6516.3960
153.0000;6525.1870
154.0000;6537.5310
155.0000;6550.6830
156.0000;6569.9730
157.0000;6591.9040
158.0000;6609.9920
159.0000;6619.7090
160.0000;6617.5330
161.0000;6610.4250
162.0000;6608.9220
163.0000;6613.4760
164.0000;6622.1070
165.0000;6634.1740
166.0000;6649.4320
167.0000;6664.7530
168.0000;6680.0620
169.0000;6691.6940
170.0000;6701.8970
171.0000;6713.8720
172.0000;6726.0230
173.0000;6739.7860
174.0000;6763.8410
175.0000;6793.5140
176.0000;6818.6850
177.0000;6835.8620
178.0000;6839.4930
179.0000;6839.2370
180.0000;6849.6070
181.0000;6867.1680
182.0000;6884.6790
183.0000;6900.0040
184.0000;6910.1160
185.0000;6919.6350
186.0000;6937.0930
187.0000;6957.2540
188.0000;6978.3950
189.0000;7001.6300
190.0000;7020.9900
191.0000;7037.6700
192.0000;7057.5910
193.0000;7072.5480
194.0000;7081.6720
195.0000;7086.9010
196.0000;7084.6860
197.0000;7080.6480
198.0000;7082.3050
199.0000;7087.3610
200.0000;7094.5940
201.0000;7103.9380
202.0000;7114.1950
203.0000;7123.2850
204.0000;7130.3470
205.0000;7134.1640
206.0000;7137.4290
207.0000;7143.1000
208.0000;7149.6900
209.0000;7158.5690
210.0000;7172.8370
211.0000;7187.9710
212.0000;7202.6060
213.0000;7214.9960
214.0000;7223.3290
215.0000;7233.0000
216.0000;7251.3170
217.0000;7269.9820
218.0000;7286.2620
219.0000;7300.8660
220.0000;7309.9190
221.0000;7318.3650
222.0000;7328.4550
223.0000;7339.3490
224.0000;7356.7750
225.0000;7387.8790
226.0000;7419.6850
227.0000;7446.8750
228.0000;7462.4200
229.0000;7467.4300
230.0000;7475.4130
231.0000;7494.8420
232.0000;7513.9820
233.0000;7527.9000
234.0000;7531.7820
235.0000;7530.5380
236.0000;7535.5180
237.0000;7552.4230
238.0000;7573.3650
239.0000;7595.5170
240.0000;7616.9450
241.0000;7631.4130
242.0000;7637.4570
243.0000;7631.8090
244.0000;7620.3250
245.0000;7615.8410
246.0000;7622.2970
247.0000;7633.8000
248.0000;7646.1820
249.0000;7657.7440
250.0000;7667.1680
251.0000;7674.3360
252.0000;7676.9170
253.0000;7678.8540
254.0000;7686.2360
255.0000;7698.7020
256.0000;7714.8360
257.0000;7738.0410
258.0000;7764.1100
259.0000;7783.5640
260.0000;7789.5570
261.0000;7779.6880
262.0000;7767.0210
263.0000;7767.9190
264.0000;7780.8340
265.0000;7799.7920
266.0000;7822.8470
267.0000;7845.8990
268.0000;7862.8610
269.0000;7868.0260
270.0000;7861.3090
271.0000;7856.9630
272.0000;7870.4300
273.0000;7894.7710
274.0000;7922.2400
275.0000;7949.2150
276.0000;7971.1350
277.0000;7988.4000
278.0000;8004.7360
279.0000;8013.5750
280.0000;8022.1860
281.0000;8038.7920
282.0000;8054.5260
283.0000;8069.0070
284.0000;8082.4080
285.0000;8091.6410
286.0000;8100.3610
287.0000;8108.6910
288.0000;8118.0470
289.0000;8136.8660
290.0000;8172.9380
291.0000;8207.8070
292.0000;8231.2190
293.0000;8234.6590
294.0000;8225.2990
295.0000;8219.7660
296.0000;8222.4120
297.0000;8228.0080
298.0000;8236.5690
299.0000;8247.6950
300.0000;8258.9930
301.0000;8268.7630
302.0000;8274.3960
303.0000;8279.2870
304.0000;8288.7870
305.0000;8301.5140
306.0000;8315.4790
307.0000;8331.8150
308.0000;8347.9030
309.0000;8361.6470
310.0000;8376.4110
311.0000;8387.5930
312.0000;8395.5740
313.0000;8403.1030
314.0000;8407.7140
315.0000;8413.6580
316.0000;8429.0480
317.0000;8447.2290
318.0000;8462.5930
319.0000;8473.1860
320.0000;8475.4790
321.0000;8474.4000
322.0000;8471.8580
323.0000;8469.4530
324.0000;8475.3620
325.0000;8497.2190
326.0000;8525.2440
327.0000;8548.7620
328.0000;8559.2700
329.0000;8561.6830
330.0000;8568.4830
331.0000;8584.4750
332.0000;8604.6660
333.0000;8629.1760
334.0000;8657.4110
335.0000;8683.0800
336.0000;8706.3360
337.0000;8721.3910
338.0000;8730.4000
339.0000;8742.8640
340.0000;8757.4280
341.0000;8771.4970
342.0000;8790.6130
343.0000;8812.0220
344.0000;8830.8810
345.0000;8849.6340
346.0000;8863.6450
347.0000;8873.4450
348.0000;8885.3630
349.0000;8894.8930
350.0000;8903.3250
351.0000;8917.2160
352.0000;8930.9050
353.0000;8941.1280
354.0000;8947.9340
355.0000;8949.4610
356.0000;8951.2510
357.0000;8961.8450
358.0000;8972.0890
359.0000;8977.7380
360.0000;8976.6740
361.0000;8967.9540
362.0000;8953.6720
363.0000;8933.9670
364.0000;8916.6310
365.0000;8910.4400
366.0000;8922.3130
367.0000;8942.3780
368.0000;8952.8980
369.0000;8948.1720
370.0000;8941.6460
371.0000;8948.1060
372.0000;8970.0370
373.0000;8994.1640
374.0000;9012.0290
375.0000;9019.0300
376.0000;9021.3610
377.0000;9025.6260
378.0000;9030.2550
379.0000;9039.2070
380.0000;9060.3810
381.0000;9087.8370
382.0000;9115.4240
383.0000;9141.2500
384.0000;9158.6770
385.0000;9172.8000
386.0000;9191.1930
387.0000;9204.1180
388.0000;9216.4390
389.0000;9229.3570
390.0000;9241.7200
391.0000;9259.8180
392.0000;9289.7660
393.0000;9319.1270
394.0000;9345.3480
395.0000;9362.2380
396.0000;9371.0480
397.0000;9381.8690
398.0000;9395.7250
399.0000;9405.1750
400.0000;9410.3970
401.0000;9409.4210
402.0000;9407.3490
403.0000;9412.7030
404.0000;9424.6700
405.0000;9438.1540
406.0000;9450.8410
407.0000;9460.6030
408.0000;9470.4460
409.0000;9484.4640
410.0000;9497.8960
411.0000;9511.5100
412.0000;9528.0910
413.0000;9542.1290
414.0000;9553.0730
415.0000;9559.3410
416.0000;9562.9230
417.0000;9573.9280
418.0000;9598.8680
419.0000;9627.8330
420.0000;9652.7070
421.0000;9667.0220
422.0000;9674.9940
423.0000;9688.0030
424.0000;9706.0520
425.0000;9722.4390
426.0000;9737.0810
427.0000;9746.2030
428.0000;9749.0580
429.0000;9749.7520
430.0000;9745.9390
431.0000;9740.9480
432.0000;9740.5710
433.0000;9743.0060
434.0000;9744.0890
435.0000;9737.9660
436.0000;9729.3960
437.0000;9725.8460
438.0000;9733.8330
439.0000;9748.4580
440.0000;9762.7510
441.0000;9770.3050
442.0000;9773.9600
443.0000;9778.5870
444.0000;9786.2270
445.0000;9794.2330
446.0000;9804.4190
447.0000;9816.2780
448.0000;9825.9840
449.0000;9832.3200
450.0000;9833.0000
451.0000;9834.8180
452.0000;9847.1180
453.0000;9868.0780
454.0000;9890.8960
455.0000;9914.6270
456.0000;9933.9040
457.0000;9948.9650
458.0000;9962.1120
459.0000;9969.8360
460.0000;9980.3310
461.0000;10005.7700
462.0000;10033.0500
463.0000;10055.9800
464.0000;10069.7200
465.0000;10074.7000
466.0000;10081.4600
467.0000;10092.8600
468.0000;10104.6100
469.0000;10119.5000
470.0000;10137.2300
471.0000;10152.8700
472.0000;10164.9600
473.0000;10170.7100
474.0000;10177.4000
475.0000;10198.4600
476.0000;10227.4300
477.0000;10252.4300
478.0000;10264.8300
479.0000;10264.1900
480.0000;10264.1000
481.0000;10281.2800
482.0000;10302.4000
483.0000;10320.1400
484.0000;10327.0800
485.0000;10329.5100
486.0000;10340.8600
487.0000;10367.4400
488.0000;10397.2500
489.0000;10424.0800
490.0000;10442.3800
491.0000;10453.1000
492.0000;10464.6500
493.0000;10473.3700
494.0000;10478.8600
495.0000;10488.1800
496.0000;10496.7900
497.0000;10501.2900
498.0000;10499.0100
499.0000;10491.6100
500.0000;10488.2000
501.0000;10499.4900
502.0000;10516.9700
503.0000;10530.4000
504.0000;10532.3200
505.0000;10526.7900
506.0000;10521.4800
507.0000;10519.4700
508.0000;10519.7700
509.0000;10522.6700
510.0000;10528.4500
511.0000;10538.2300
512.0000;10553.3900
513.0000;10572.1300
514.0000;10589.6800
515.0000;10604.2000
516.0000;10611.8800
517.0000;10615.9800
518.0000;10622.9000
519.0000;10627.4200
520.0000;10630.6800
521.0000;10634.2100
522.0000;10636.5700
523.0000;10639.9900
524.0000;10645.5700
525.0000;10652.0800
526.0000;10660.7400
527.0000;10671.2900
528.0000;10681.0500
529.0000;10688.9300
530.0000;10692.7400
531.0000;10697.1100
532.0000;10708.3500
533.0000;10724.5000
534.0000;10743.4800
535.0000;10764.3600
536.0000;10783.5500
537.0000;10801.5000
538.0000;10821.7900
539.0000;10837.7100
540.0000;10855.7100
541.0000;10881.1700
542.0000;10903.0500
543.0000;10917.9800
544.0000;10922.8200
545.0000;10919.9700
546.0000;10918.0700
547.0000;10917.9400
548.0000;10925.1600
549.0000;10950.6100
550.0000;10989.4000
551.0000;11027.5300
552.0000;11056.5800
553.0000;11070.3700
554.0000;11074.8000
555.0000;11079.9000
556.0000;11078.7200
557.0000;11081.1300
558.0000;11094.3200
559.0000;11110.2700
560.0000;11123.0600
561.0000;11129.7000
562.0000;11131.9000
563.0000;11134.7200
564.0000;11137.6400
565.0000;11141.1400
566.0000;11148.1100
567.0000;11157.5700
568.0000;11167.1700
569.0000;11176.5800
570.0000;11184.4500
571.0000;11192.2900
572.0000;11201.9800
573.0000;11211.9200
574.0000;11227.0300
575.0000;11253.3900
576.0000;11275.4900
577.0000;11284.9100
578.0000;11274.7300
579.0000;11254.1900
580.0000;11239.2100
581.0000;11231.6900
582.0000;11229.6300
583.0000;11228.1700
584.0000;11232.1200
585.0000;11244.5000
586.0000;11273.0300
587.0000;11305.3700
588.0000;11326.5400
589.0000;11323.6100
590.0000;11302.5100
591.0000;11282.1100
592.0000;11269.3300
593.0000;11263.8400
594.0000;11266.6400
595.0000;11279.6200
596.0000;11295.4000
597.0000;11300.1900
598.0000;11295.0700
599.0000;11293.7500
600.0000;11311.2900
601.0000;11339.4700
602.0000;11366.9600
603.0000;11386.6700
604.0000;11394.0400
605.0000;11393.9700
606.0000;11387.2800
607.0000;11375.3000
608.0000;11366.6700
609.0000;11363.6200
610.0000;11372.8300
611.0000;11400.9100
612.0000;11447.6000
613.0000;11491.8600
614.0000;11519.0300
615.0000;11524.9200
616.0000;11528.5400
617.0000;11552.0400
618.0000;11580.0700
619.0000;11609.0300
620.0000;11638.7500
621.0000;11663.0300
622.0000;11689.7000
623.0000;11716.8000
624.0000;11735.9700
625.0000;11751.3800
626.0000;11757.7900
627.0000;11761.9400
628.0000;11778.8100
629.0000;11801.4000
630.0000;11821.3300
631.0000;11835.8800
632.0000;11842.8200
633.0000;11851.5000
634.0000;11868.7700
635.0000;11885.5000
636.0000;11897.8200
637.0000;11901.8100
638.0000;11903.5400
639.0000;11915.4500
640.0000;11936.3800
641.0000;11955.2200
642.0000;11966.5100
643.0000;11967.5100
644.0000;11966.2800
645.0000;11973.0200
646.0000;11980.9700
647.0000;11987.9500
648.0000;11993.0600
649.0000;11994.9100
650.0000;11994.0800
651.0000;11989.5300
652.0000;11987.7000
653.0000;11997.4200
654.0000;12018.6600
655.0000;12040.6500
656.0000;12055.2800
657.0000;12061.3300
658.0000;12067.8000
659.0000;12087.8300
660.0000;12108.2400
661.0000;12122.4200
662.0000;12126.4400
663.0000;12122.1300
664.0000;12119.0800
665.0000;12119.1500
666.0000;12122.8700
667.0000;12134.7500
668.0000;12152.5600
669.0000;12169.1600
670.0000;12177.2900
671.0000;12176.4200
672.0000;12174.8000
673.0000;12179.6200
674.0000;12186.6900
675.0000;12196.3600
676.0000;12208.7000
677.0000;12220.1500
678.0000;12229.7200
679.0000;12234.9900
680.0000;12236.3500
681.0000;12237.6100
682.0000;12236.9200
683.0000;12235.2200
684.0000;12232.3900
685.0000;12230.9900
686.0000;12235.3700
687.0000;12248.0700
688.0000;12266.6200
689.0000;12287.6100
690.0000;12308.0900
691.0000;12326.2600
692.0000;12343.5600
693.0000;12356.4300
694.0000;12369.8600
695.0000;12394.1900
696.0000;12422.0800
697.0000;12449.7200
698.0000;12477.9600
699.0000;12499.7900
700.0000;12521.7200
701.0000;12545.6300
702.0000;12564.3200
703.0000;12583.9300
704.0000;12600.0300
705.0000;12611.8300
706.0000;12626.4500
707.0000;12638.4100
708.0000;12647.7200
709.0000;12659.2300
710.0000;12666.9900
711.0000;12672.3700
712.0000;12674.2600
713.0000;12676.6000
714.0000;12690.7500
715.0000;12718.8600
716.0000;12746.0500
717.0000;12758.7700
718.0000;12754.2700
719.0000;12749.7800
720.0000;12766.9000
721.0000;12794.3600
722.0000;12819.4800
723.0000;12833.1100
724.0000;12835.5000
725.0000;12833.2200
726.0000;12826.3300
727.0000;12822.1500
728.0000;12835.4700
729.0000;12865.9100
730.0000;12897.0100
731.0000;12915.2000
732.0000;12918.9100
733.0000;12919.3300
734.0000;12928.7400
735.0000;12937.0700
736.0000;12943.3600
737.0000;12946.3100
738.0000;12946.5000
739.0000;12948.5600
740.0000;12952.2300
741.0000;12955.4000
742.0000;12956.4300
743.0000;12955.9100
744.0000;12957.2000
745.0000;12964.6100
746.0000;12973.9000
747.0000;12981.2700
748.0000;12983.3600
749.0000;12984.3600
750.0000;12992.7600
751.0000;13008.6400
752.0000;13020.4900
753.0000;13015.2500
754.0000;12996.8900
755.0000;12984.3000
756.0000;12997.8300
757.0000;13024.1700
758.0000;13045.6200
759.0000;13049.6400
760.0000;13044.9000
761.0000;13041.8600
762.0000;13041.9300
763.0000;13045.3700
764.0000;13056.2700
765.0000;13072.0200
766.0000;13087.2000
767.0000;13097.3800
768.0000;13101.7200
769.0000;13105.3500
770.0000;13110.0700
771.0000;13114.1300
772.0000;13120.2500
773.0000;13127.9600
774.0000;13135.6400
775.0000;13142.1100
776.0000;13147.0600
777.0000;13154.0000
778.0000;13169.0400
779.0000;13185.1100
780.0000;13199.7600
781.0000;13211.2500
782.0000;13216.4900
783.0000;13217.1200
784.0000;13212.1100
785.0000;13211.3700
786.0000;13229.2100
787.0000;13260.2600
788.0000;13287.3700
789.0000;13301.8800
790.0000;13302.8900
791.0000;13300.5500
792.0000;13297.2800
793.0000;13295.7400
794.0000;13304.8100
795.0000;13325.7000
796.0000;13350.3700
797.0000;13374.2000
798.0000;13394.2300
799.0000;13414.8800
800.0000;13444.2200
801.0000;13469.2300
802.0000;13491.2600
803.0000;13505.2900
804.0000;13514.5500
805.0000;13533.2500
806.0000;13555.6300
807.0000;13573.5100
808.0000;13583.0400
809.0000;13582.1400
810.0000;13581.1600
811.0000;13587.6700
812.0000;13595.5700
813.0000;13604.6500
814.0000;13614.5100
815.0000;13618.0900
816.0000;13608.5600
817.0000;13587.7600
818.0000;13573.1400
819.0000;13578.7000
820.0000;13599.9500
821.0000;13624.0500
822.0000;13643.4300
823.0000;13658.5800
824.0000;13669.3700
825.0000;13672.5400
826.0000;13673.3800
827.0000;13680.6900
828.0000;13691.6500
829.0000;13707.1000
830.0000;13728.9500
831.0000;13751.4600
832.0000;13773.3500
833.0000;13793.5700
834.0000;13805.4100
835.0000;13809.5800
836.0000;13803.8000
837.0000;13799.1300
838.0000;13812.1900
839.0000;13833.4100
840.0000;13850.2000
841.0000;13856.9100
842.0000;13853.0400
843.0000;13842.4900
844.0000;13826.0900
845.0000;13813.6200
846.0000;13818.7400
847.0000;13840.1900
848.0000;13862.3100
849.0000;13870.3200
850.0000;13871.5900
851.0000;13877.4300
852.0000;13892.6800
853.0000;13909.3700
854.0000;13926.1100
855.0000;13938.4700
856.0000;13944.0500
857.0000;13938.3800
858.0000;13926.5200
859.0000;13928.1900
860.0000;13960.9900
861.0000;14000.5000
862.0000;14019.4200
863.0000;14007.6200
864.0000;13987.8400
865.0000;13990.4800
866.0000;14008.9000
867.0000;14024.1700
868.0000;14021.0900
869.0000;14008.5100
870.0000;13999.4000
871.0000;13999.3200
872.0000;14005.4200
873.0000;14014.2700
874.0000;14026.2800
875.0000;14042.1500
876.0000;14062.4500
877.0000;14083.9800
878.0000;14105.3500
879.0000;14125.4900
880.0000;14141.0700
881.0000;14158.8800
882.0000;14176.2500
883.0000;14189.7500
884.0000;14203.0500
885.0000;14211.5300
886.0000;14219.4400
887.0000;14233.0200
888.0000;14244.6200
889.0000;14252.1900
890.0000;14252.6100
891.0000;14256.7800
892.0000;14280.8500
893.0000;14319.1900
894.0000;14355.3000
895.0000;14377.7400
896.0000;14387.2300
897.0000;14400.7400
898.0000;14423.8000
899.0000;14448.0700
900.0000;14477.6100
901.0000;14506.4200
902.0000;14528.9300
903.0000;14545.6100
904.0000;14552.2100
905.0000;14561.7500
906.0000;14580.1500
907.0000;14604.4700
908.0000;14642.3800
909.0000;14689.8200
910.0000;14731.1400
911.0000;14762.0300
912.0000;14772.0100
913.0000;14771.7000
914.0000;14769.5200
915.0000;14763.4500
916.0000;14766.7200
917.0000;14782.7700
918.0000;14805.2100
919.0000;14828.2000
920.0000;14848.9000
921.0000;14867.8000
922.0000;14889.9900
923.0000;14904.8100
924.0000;14912.6400
925.0000;14911.5000
926.0000;14904.3700
927.0000;14900.4400
928.0000;14899.6300
929.0000;14902.5000
930.0000;14908.8000
931.0000;14919.3700
932.0000;14933.5100
933.0000;14948.8500
934.0000;14965.6100
935.0000;14988.3800
936.0000;15011.0500
937.0000;15028.4700
938.0000;15036.6600
939.0000;15037.7100
940.0000;15050.6000
941.0000;15086.4600
942.0000;15122.3600
943.0000;15136.9900
944.0000;15125.9900
945.0000;15110.8900
946.0000;15119.5000
947.0000;15137.6700
948.0000;15151.7900
949.0000;15152.9700
950.0000;15146.8700
951.0000;15138.1800
952.0000;15129.4500
953.0000;15131.5600
954.0000;15158.9100
955.0000;15200.5700
956.0000;15236.6400
957.0000;15250.0800
958.0000;15251.6200
959.0000;15263.5500
960.0000;15284.2600
961.0000;15300.8100
962.0000;15303.2600
963.0000;15295.9200
964.0000;15297.6700
965.0000;15321.3800
966.0000;15353.8800
967.0000;15382.8300
968.0000;15403.1300
969.0000;15414.5100
970.0000;15421.4800
971.0000;15421.5400
972.0000;15428.9400
973.0000;15452.8700
974.0000;15482.4800
975.0000;15513.8100
976.0000;15539.2300
977.0000;15554.9600
978.0000;15561.1900
979.0000;15554.7500
980.0000;15550.8200
981.0000;15559.9200
982.0000;15573.7800
983.0000;15586.2500
984.0000;15595.6600
985.0000;15605.9100
986.0000;15624.9800
987.0000;15645.3200
988.0000;15663.6200
989.0000;15675.4000
990.0000;15682.6900
991.0000;15695.5600
992.0000;15712.3200
993.0000;15730.0600
994.0000;15750.0200
995.0000;15767.4200
996.0000;15782.7200
997.0000;15794.6100
998.0000;15804.8100
999.0000;15824.0900
1000.0000;15851.1100
1001.0000;15875.0400
1002.0000;15891.2500
1003.0000;15897.6200
1004.0000;15905.6100
1005.0000;15920.9700
1006.0000;15936.7900
1007.0000;15951.6000
1008.0000;15962.7600
1009.0000;15977.4500
1010.0000;16003.7100
1011.0000;16034.4600
1012.0000;16072.6000
1013.0000;16117.1000
1014.0000;16153.3500
1015.0000;16183.3800
1016.0000;16196.4000
1017.0000;16197.7200
1018.0000;16201.5300
1019.0000;16199.0100
1020.0000;16197.9900
1021.0000;16201.9100
1022.0000;16206.0700
1023.0000;16207.7200
1024.0000;16206.9900
1025.0000;16208.3900
1026.0000;16213.9700
1027.0000;16224.2600
1028.0000;16239.5100
1029.0000;16258.5000
1030.0000;16280.7100
1031.0000;16311.4200
1032.0000;16342.4300
1033.0000;16361.0000
1034.0000;16358.6100
1035.0000;16342.2700
1036.0000;16336.6100
1037.0000;16347.9800
1038.0000;16367.2900
1039.0000;16388.2300
1040.0000;16408.9400
1041.0000;16429.4300
1042.0000;16450.2400
1043.0000;16464.8000
1044.0000;16476.3900
1045.0000;16481.8200
1046.0000;16488.9200
1047.0000;16511.6200
1048.0000;16540.7000
1049.0000;16569.1500
1050.0000;16593.7700
1051.0000;16605.6900
1052.0000;16604.4700
1053.0000;16587.4800
1054.0000;16571.9700
1055.0000;16581.0100
1056.0000;16600.6700
1057.0000;16608.7800
1058.0000;16593.0000
1059.0000;16577.1700
1060.0000;16586.1600
1061.0000;16618.0200
1062.0000;16652.6800
1063.0000;16677.0300
1064.0000;16689.9300
1065.0000;16697.1800
1066.0000;16696.9600
1067.0000;16695.2700
1068.0000;16705.6400
1069.0000;16723.3900
1070.0000;16742.2400
1071.0000;16759.4900
1072.0000;16770.9600
1073.0000;16776.3000
1074.0000;16773.4800
1075.0000;16774.0600
1076.0000;16795.0500
1077.0000;16824.7800
1078.0000;16847.6700
1079.0000;16853.6400
1080.0000;16850.8000
1081.0000;16850.4100
1082.0000;16854.6500
1083.0000;16875.3500
1084.0000;16929.9900
1085.0000;16994.1100
1086.0000;17040.3900
1087.0000;17051.8200
1088.0000;17050.8400
1089.0000;17074.4400
1090.0000;17109.4900
1091.0000;17145.6300
1092.0000;17176.8600
1093.0000;17197.6300
1094.0000;17215.4700
1095.0000;17225.5500
1096.0000;17229.9200
1097.0000;17242.4400
1098.0000;17251.0500
1099.0000;17251.0500
1100.0000;17238.5100
1101.0000;17223.4200
1102.0000;17217.9300
1103.0000;17224.9700
1104.0000;17240.5900
1105.0000;17261.1700
1106.0000;17285.7000
1107.0000;17312.8900
1108.0000;17337.0000
1109.0000;17354.3600
1110.0000;17369.4500
1111.0000;17374.4600
1112.0000;17373.5000
1113.0000;17368.6100
1114.0000;17362.7500
1115.0000;17364.3000
1116.0000;17375.1300
1117.0000;17394.3900
1118.0000;17422.1200
1119.0000;17454.2200
1120.0000;17487.0400
1121.0000;17517.2200
1122.0000;17534.8800
1123.0000;17537.8900
1124.0000;17524.2100
1125.0000;17513.7000
1126.0000;17523.4600
1127.0000;17539.6200
1128.0000;17550.8900
1129.0000;17553.5300
1130.0000;17553.0200
1131.0000;17553.7500
1132.0000;17555.0100
1133.0000;17561.0600
1134.0000;17574.2000
1135.0000;17587.9300
1136.0000;17598.8300
1137.0000;17603.8700
1138.0000;17606.4800
1139.0000;17610.1200
1140.0000;17611.3500
1141.0000;17611.8200
1142.0000;17611.4000
1143.0000;17612.6400
1144.0000;17619.4300
1145.0000;17628.4900
1146.0000;17635.8900
1147.0000;17638.8700
1148.0000;17637.7200
1149.0000;17633.1900
1150.0000;17626.5400
1151.0000;17625.5700
1152.0000;17637.0000
1153.0000;17653.2800
1154.0000;17666.0300
1155.0000;17670.9300
1156.0000;17670.8200
1157.0000;17667.2000
1158.0000;17662.4700
1159.0000;17667.1600
1160.0000;17686.8400
1161.0000;17709.3300
1162.0000;17723.7600
1163.0000;17728.5400
1164.0000;17735.8900
1165.0000;17755.6000
1166.0000;17776.3000
1167.0000;17790.5200
1168.0000;17794.3900
1169.0000;17798.6300
1170.0000;17814.7600
1171.0000;17837.2600
1172.0000;17866.0200
1173.0000;17898.1400
1174.0000;17923.8100
1175.0000;17934.6900
1176.0000;17930.6700
1177.0000;17936.2000
1178.0000;17968.1800
1179.0000;18008.6900
1180.0000;18042.8700
1181.0000;18063.1600
1182.0000;18080.5000
1183.0000;18113.1300
1184.0000;18139.8300
1185.0000;18157.2900
1186.0000;18158.4900
1187.0000;18158.3300
1188.0000;18183.8700
1189.0000;18219.7400
1190.0000;18243.2900
1191.0000;18241.4000
1192.0000;18228.5300
1193.0000;18228.2000
1194.0000;18240.7500
1195.0000;18263.7800
1196.0000;18299.9300
1197.0000;18335.6200
1198.0000;18363.7700
1199.0000;18374.6300
1200.0000;18369.6100
1201.0000;18355.3100
1202.0000;18333.6900
1203.0000;18325.1800
1204.0000;18340.0100
1205.0000;18365.5400
1206.0000;18386.3800
1207.0000;18402.7700
1208.0000;18417.9200
1209.0000;18432.0700
1210.0000;18445.7800
1211.0000;18470.3300
1212.0000;18502.0800
1213.0000;18528.7000
1214.0000;18545.0400
1215.0000;18549.6000
1216.0000;18557.8600
1217.0000;18570.4700
1218.0000;18586.3000
1219.0000;18613.1100
1220.0000;18639.5400
1221.0000;18655.8600
1222.0000;18654.6000
1223.0000;18646.5800
1224.0000;18649.9300
1225.0000;18662.7400
1226.0000;18682.6500
1227.0000;18713.5100
1228.0000;18739.7700
1229.0000;18746.7200
1230.0000;18730.8600
1231.0000;18718.0300
1232.0000;18731.2100
1233.0000;18760.1800
1234.0000;18798.0100
1235.0000;18838.6700
1236.0000;18863.3400
1237.0000;18855.0900
1238.0000;18823.1000
1239.0000;18809.7300
1240.0000;18834.8400
1241.0000;18868.1300
1242.0000;18884.1800
1243.0000;18881.0300
1244.0000;18866.3300
1245.0000;18841.7500
1246.0000;18818.7600
1247.0000;18814.7200
1248.0000;18832.3600
1249.0000;18853.4800
1250.0000;18862.2900
1251.0000;18865.6700
1252.0000;18870.3100
1253.0000;18876.0400
1254.0000;18884.6100
1255.0000;18902.9600
1256.0000;18921.8200
1257.0000;18936.1800
1258.0000;18941.7300
1259.0000;18937.3600
1260.0000;18924.0300
1261.0000;18905.8800
1262.0000;18898.1300
1263.0000;18910.0700
1264.0000;18930.0400
1265.0000;18937.2200
1266.0000;18937.5300
1267.0000;18951.1100
1268.0000;18993.4200
1269.0000;19037.8100
1270.0000;19059.5800
1271.0000;19052.2000
1272.0000;19043.8000
1273.0000;19059.1700
1274.0000;19082.2600
1275.0000;19104.5500
1276.0000;19121.9700
1277.0000;19137.7600
1278.0000;19159.9800
1279.0000;19180.1700
1280.0000;19201.4100
1281.0000;19219.7300
1282.0000;19238.1500
1283.0000;19265.3000
1284.0000;19294.8400
1285.0000;19329.4900
1286.0000;19368.7900
1287.0000;19401.1900
1288.0000;19428.4500
1289.0000;19440.6500
1290.0000;19451.0900
1291.0000;19466.8100
1292.0000;19480.3100
1293.0000;19496.3800
1294.0000;19510.6000
1295.0000;19522.5000
1296.0000;19530.2400
1297.0000;19537.6300
1298.0000;19558.2700
1299.0000;19588.1200
1300.0000;19616.7500
1301.0000;19642.0800
1302.0000;19654.4700
1303.0000;19658.6800
1304.0000;19652.0600
1305.0000;19646.2000
1306.0000;19652.4600
1307.0000;19670.0000
1308.0000;19702.8700
1309.0000;19750.5900
1310.0000;19785.6700
1311.0000;19786.6500
1312.0000;19762.9500
1313.0000;19757.8700
1314.0000;19787.7100
1315.0000;19821.5300
1316.0000;19830.9200
1317.0000;19824.0900
1318.0000;19831.3700
1319.0000;19865.5400
1320.0000;19908.2400
1321.0000;19948.4800
1322.0000;19976.7300
1323.0000;19988.8800
1324.0000;19981.0000
1325.0000;19964.8600
1326.0000;19969.6700
1327.0000;19990.6700
1328.0000;20009.2600
1329.0000;20012.0400
1330.0000;20008.8500
1331.0000;20014.2400
1332.0000;20026.4300
1333.0000;20036.9100
1334.0000;20041.3800
1335.0000;20041.8500
1336.0000;20047.7700
1337.0000;20056.7900
1338.0000;20056.1200
1339.0000;20030.4200
1340.0000;20003.2300
1341.0000;20003.7900
1342.0000;20039.9100
1343.0000;20081.4000
1344.0000;20101.4600
1345.0000;20111.6500
1346.0000;20137.0800
1347.0000;20177.8400
1348.0000;20211.9600
1349.0000;20236.2100
1350.0000;20239.4300
1351.0000;20232.5800
1352.0000;20215.6400
1353.0000;20195.9700
1354.0000;20185.9100
1355.0000;20184.0800
1356.0000;20183.5400
1357.0000;20183.0700
1358.0000;20184.3100
1359.0000;20185.0300
1360.0000;20186.3300
1361.0000;20188.5300
1362.0000;20191.6500
1363.0000;20195.0100
1364.0000;20198.4100
1365.0000;20201.1500
1366.0000;20202.4200
1367.0000;20200.7200
1368.0000;20205.1800
1369.0000;20224.2000
1370.0000;20255.6300
1371.0000;20295.1400
1372.0000;20339.0800
1373.0000;20372.1100
1374.0000;20391.7400
1375.0000;20389.8000
1376.0000;20386.5300
1377.0000;20392.9700
1378.0000;20396.4400
1379.0000;20389.9200
1380.0000;20378.3400
1381.0000;20379.7100
1382.0000;20405.8400
1383.0000;20434.8600
1384.0000;20436.3400
1385.0000;20420.4000
1386.0000;20431.2700
1387.0000;20497.1300
1388.0000;20573.8600
1389.0000;20621.8300
1390.0000;20632.3400
1391.0000;20635.9800
1392.0000;20651.0400
1393.0000;20658.2100
1394.0000;20659.5600
1395.0000;20651.6500
1396.0000;20638.9600
1397.0000;20623.3700
1398.0000;20613.8400
1399.0000;20619.8100
1400.0000;20641.3700
1401.0000;20662.9800
1402.0000;20671.0600
1403.0000;20681.3100
1404.0000;20714.1900
1405.0000;20761.8400
1406.0000;20807.4300
1407.0000;20839.2600
1408.0000;20860.8100
1409.0000;20892.2100
1410.0000;20924.5300
1411.0000;20960.8900
1412.0000;21006.8100
1413.0000;21041.9400
1414.0000;21063.1600
1415.0000;21062.7200
1416.0000;21060.2900
1417.0000;21070.7200
1418.0000;21080.2900
1419.0000;21084.4600
1420.0000;21082.7600
1421.0000;21083.5600
1422.0000;21091.7900
1423.0000;21102.1200
1424.0000;21108.9200
1425.0000;21113.7300
1426.0000;21126.7500
1427.0000;21153.0400
1428.0000;21184.1300
1429.0000;21217.7100
1430.0000;21244.3500
1431.0000;21266.4700
1432.0000;21283.6000
1433.0000;21292.4000
1434.0000;21305.0900
1435.0000;21314.5700
1436.0000;21320.5400
1437.0000;21322.9900
1438.0000;21320.0800
1439.0000;21316.0200
1440.0000;21309.4200
1441.0000;21300.4000
1442.0000;21290.3500
1443.0000;21281.2700
1444.0000;21270.6800
1445.0000;21264.7300
1446.0000;21268.8000
1447.0000;21285.5900
1448.0000;21305.0400
1449.0000;21314.9600
1450.0000;21315.4500
1451.0000;21316.7300
1452.0000;21321.8200
1453.0000;21326.5100
1454.0000;21326.4500
1455.0000;21327.2700
1456.0000;21341.9500
1457.0000;21373.3100
1458.0000;21407.7200
1459.0000;21436.6500
1460.0000;21453.9700
1461.0000;21468.3800
1462.0000;21478.5600
1463.0000;21494.0800
1464.0000;21537.3800
1465.0000;21586.4300
1466.0000;21619.0600
1467.0000;21624.8100
1468.0000;21617.8000
1469.0000;21623.4000
1470.0000;21625.2700
1471.0000;21620.2800
1472.0000;21608.2100
1473.0000;21596.8200
1474.0000;21592.0300
1475.0000;21594.8900
1476.0000;21601.0200
1477.0000;21611.2500
1478.0000;21628.3300
1479.0000;21654.5200
1480.0000;21679.1400
1481.0000;21692.4700
1482.0000;21690.3600
1483.0000;21685.4000
1484.0000;21688.5600
1485.0000;21691.4700
1486.0000;21687.5000
1487.0000;21681.3300
1488.0000;21690.5700
1489.0000;21727.0600
1490.0000;21766.9100
1491.0000;21782.9300
1492.0000;21774.1200
1493.0000;21764.4600
1494.0000;21765.2100
1495.0000;21769.8400
1496.0000;21772.8300
1497.0000;21781.2400
1498.0000;21811.6600
1499.0000;21869.9600
1500.0000;21919.3900
1501.0000;21929.8400
1502.0000;21910.8200
1503.0000;21913.0700
1504.0000;21951.6000
1505.0000;21993.1600
1506.0000;22021.1500
1507.0000;22032.4000
1508.0000;22039.1000
1509.0000;22040.3300
1510.0000;22048.6900
1511.0000;22083.1900
1512.0000;22125.8800
1513.0000;22161.0300
1514.0000;22181.7300
1515.0000;22197.8800
1516.0000;22219.5000
1517.0000;22238.5700
1518.0000;22264.2300
1519.0000;22288.8600
1520.0000;22309.9200
1521.0000;22326.0700
1522.0000;22332.3100
1523.0000;22335.5500
1524.0000;22333.7400
1525.0000;22337.3800
1526.0000;22353.0300
1527.0000;22364.9200
1528.0000;22359.0400
1529.0000;22341.6300
1530.0000;22333.6300
1531.0000;22342.8200
1532.0000;22363.5300
1533.0000;22389.5000
1534.0000;22418.1100
1535.0000;22446.8600
1536.0000;22469.3800
1537.0000;22488.0300
1538.0000;22514.0500
1539.0000;22529.8000
1540.0000;22529.1900
1541.0000;22512.4200
1542.0000;22511.1400
1543.0000;22551.2800
1544.0000;22606.7400
1545.0000;22652.6600
1546.0000;22677.4100
1547.0000;22686.0400
1548.0000;22678.3700
1549.0000;22664.8700
1550.0000;22677.7900
1551.0000;22702.1400
1552.0000;22708.1000
1553.0000;22680.0000
1554.0000;22655.1500
1555.0000;22673.6900
1556.0000;22715.8600
1557.0000;22739.8300
1558.0000;22732.9300
1559.0000;22728.0900
1560.0000;22756.8100
1561.0000;22795.5600
1562.0000;22828.6500
1563.0000;22844.8400
1564.0000;22837.8200
1565.0000;22801.5500
1566.0000;22758.1300
1567.0000;22742.8600
1568.0000;22759.4800
1569.0000;22783.8600
1570.0000;22802.4800
1571.0000;22823.0800
1572.0000;22852.6300
1573.0000;22879.1500
1574.0000;22894.8100
1575.0000;22893.2800
1576.0000;22884.3200
1577.0000;22884.1800
1578.0000;22887.6100
1579.0000;22897.0600
1580.0000;22910.0700
1581.0000;22913.0500
1582.0000;22896.3200
1583.0000;22868.5700
1584.0000;22842.3600
1585.0000;22824.2600
1586.0000;22815.8200
1587.0000;22817.5800
1588.0000;22832.1700
1589.0000;22848.5800
1590.0000;22869.3000
1591.0000;22896.9700
1592.0000;22929.2300
1593.0000;22960.4100
1594.0000;22993.9800
1595.0000;23018.2300
1596.0000;23041.7900
1597.0000;23060.3000
1598.0000;23078.3400
1599.0000;23110.9000
1600.0000;23134.8500
1601.0000;23140.2300
1602.0000;23125.7100
1603.0000;23120.6600
1604.0000;23145.2300
1605.0000;23172.2800
1606.0000;23179.0000
1607.0000;23166.6800
1608.0000;23153.1200
1609.0000;23144.0900
1610.0000;23144.4100
1611.0000;23163.3000
1612.0000;23188.8100
1613.0000;23195.1900
1614.0000;23178.9900
1615.0000;23179.6600
1616.0000;23231.1300
1617.0000;23290.2200
1618.0000;23303.4100
1619.0000;23274.5800
1620.0000;23259.2600
1621.0000;23286.9600
1622.0000;23325.7600
1623.0000;23355.6800
1624.0000;23367.1800
1625.0000;23351.9100
1626.0000;23307.4400
1627.0000;23268.6800
1628.0000;23266.0600
1629.0000;23291.5800
1630.0000;23319.3500
1631.0000;23346.5800
1632.0000;23380.8300
1633.0000;23421.1500
1634.0000;23456.2900
1635.0000;23486.8500
1636.0000;23503.6100
1637.0000;23524.8600
1638.0000;23552.2800
1639.0000;23573.4200
1640.0000;23586.8300
1641.0000;23589.4000
1642.0000;23593.2700
1643.0000;23600.0300
1644.0000;23619.8000
1645.0000;23666.2500
1646.0000;23710.7000
1647.0000;23734.3700
1648.0000;23728.7500
1649.0000;23714.8600
1650.0000;23701.7000
1651.0000;23684.7900
1652.0000;23659.4300
1653.0000;23641.9900
1654.0000;23648.1400
1655.0000;23681.0200
1656.0000;23711.0100
1657.0000;23712.8300
1658.0000;23697.8100
1659.0000;23685.7400
1660.0000;23673.3800
1661.0000;23653.0200
1662.0000;23622.6700
1663.0000;23593.0300
1664.0000;23563.0700
1665.0000;23544.8600
1666.0000;23533.2200
1667.0000;23532.4000
1668.0000;23544.3200
1669.0000;23565.6600
1670.0000;23590.3500
1671.0000;23605.9200
1672.0000;23607.6900
1673.0000;23602.8000
1674.0000;23592.9900
1675.0000;23586.5700
1676.0000;23596.3900
1677.0000;23615.3200
1678.0000;23628.5100
1679.0000;23630.9700
1680.0000;23628.6400
1681.0000;23626.6500
1682.0000;23621.7500
1683.0000;23619.1300
1684.0000;23614.5000
1685.0000;23594.4500
1686.0000;23554.3400
1687.0000;23516.2000
1688.0000;23492.2300
1689.0000;23489.9000
1690.0000;23497.0500
1691.0000;23514.4000
1692.0000;23531.8800
1693.0000;23538.0000
1694.0000;23540.8200
1695.0000;23549.8900
1696.0000;23563.4400
1697.0000;23585.8800
1698.0000;23616.2800
1699.0000;23642.0000
1700.0000;23659.6100
1701.0000;23662.4400
1702.0000;23659.5400
1703.0000;23651.3200
1704.0000;23653.2700
1705.0000;23679.0600
1706.0000;23696.0600
1707.0000;23668.9700
1708.0000;23611.4400
1709.0000;23563.2800
1710.0000;23541.7600
1711.0000;23533.6000
1712.0000;23519.9000
1713.0000;23520.2000
1714.0000;23531.9900
1715.0000;23557.3200
1716.0000;23590.9400
1717.0000;23627.7900
1718.0000;23655.4400
1719.0000;23665.9100
1720.0000;23662.1500
1721.0000;23677.1000
1722.0000;23709.6000
1723.0000;23729.3400
1724.0000;23714.1700
1725.0000;23695.3800
1726.0000;23718.1700
1727.0000;23769.0000
1728.0000;23805.1300
1729.0000;23811.4100
1730.0000;23812.2200
1731.0000;23833.0500
1732.0000;23855.7900
1733.0000;23880.8100
1734.0000;23896.3300
1735.0000;23884.9900
1736.0000;23836.4600
1737.0000;23785.9100
1738.0000;23774.1400
1739.0000;23793.1900
1740.0000;23807.8100
1741.0000;23816.1100
1742.0000;23838.2100
1743.0000;23888.8600
1744.0000;23932.4400
1745.0000;23938.4000
1746.0000;23914.7400
1747.0000;23915.4100
1748.0000;23955.9200
1749.0000;23987.7100
1750.0000;23974.9300
1751.0000;23948.4100
1752.0000;23956.5500
1753.0000;23992.9600
1754.0000;24023.9200
1755.0000;24033.8400
1756.0000;24029.6800
1757.0000;24022.9600
1758.0000;24009.7600
1759.0000;23997.7200
1760.0000;23990.0500
1761.0000;23987.2700
1762.0000;23988.9800
1763.0000;23997.4100
1764.0000;24007.5600
1765.0000;24022.0500
1766.0000;24047.9000
1767.0000;24079.4100
1768.0000;24096.5600
1769.0000;24086.5100
1770.0000;24059.5500
1771.0000;24035.4900
1772.0000;24020.2000
1773.0000;24018.4900
1774.0000;24034.9500
1775.0000;24052.6600
1776.0000;24052.3700
1777.0000;24049.4000
1778.0000;24065.8300
1779.0000;24094.4700
1780.0000;24111.7500
1781.0000;24107.3800
1782.0000;24093.5000
1783.0000;24088.3200
1784.0000;24080.6900
1785.0000;24066.8000
1786.0000;24043.7100
1787.0000;23999.4900
1788.0000;23926.4400
1789.0000;23865.7400
1790.0000;23835.3300
1791.0000;23845.0200
1792.0000;23859.1800
1793.0000;23878.8300
1794.0000;23908.5200
1795.0000;23947.9800
1796.0000;23980.1300
1797.0000;23996.8600
1798.0000;23995.7100
1799.0000;24005.4300
1800.0000;24023.7300
1801.0000;24024.6800
1802.0000;23996.2700
1803.0000;23947.4400
1804.0000;23880.3300
1805.0000;23822.0400
1806.0000;23796.1800
1807.0000;23819.7500
1808.0000;23857.5700
1809.0000;23882.6000
1810.0000;23894.0000
1811.0000;23884.9100
1812.0000;23857.5000
1813.0000;23838.0000
1814.0000;23834.8400
1815.0000;23834.4000
1816.0000;23823.6900
1817.0000;23817.2700
1818.0000;23820.9200
1819.0000;23836.9700
1820.0000;23863.6500
1821.0000;23898.2300
1822.0000;23914.2000
1823.0000;23893.4700
1824.0000;23851.8100
1825.0000;23818.7600
1826.0000;23798.0300
1827.0000;23775.0000
1828.0000;23751.5100
1829.0000;23748.0400
1830.0000;23778.9900
1831.0000;23820.1700
1832.0000;23825.4000
1833.0000;23802.8200
1834.0000;23800.0700
1835.0000;23833.2800
1836.0000;23876.4300
1837.0000;23913.7500
1838.0000;23939.1400
1839.0000;23956.1900
1840.0000;23960.0600
1841.0000;23972.6900
1842.0000;23999.9500
1843.0000;24030.5000
1844.0000;24063.5500
1845.0000;24086.5400
1846.0000;24100.1000
1847.0000;24098.7600
1848.0000;24098.7200
1849.0000;24104.9100
1850.0000;24094.7400
1851.0000;24044.6100
1852.0000;23998.9500
1853.0000;24009.7000
1854.0000;24071.1200
1855.0000;24125.8100
1856.0000;24149.9900
1857.0000;24159.1600
1858.0000;24165.7300
1859.0000;24164.3200
1860.0000;24173.4600
1861.0000;24185.3800
1862.0000;24188.0700
1863.0000;24177.7900
1864.0000;24170.5500
1865.0000;24181.1900
1866.0000;24194.7900
1867.0000;24197.2000
1868.0000;24187.0200
1869.0000;24165.8900
1870.0000;24137.5300
1871.0000;24124.7300
1872.0000;24141.7200
1873.0000;24180.4900
1874.0000;24225.3200
1875.0000;24266.5900
1876.0000;24292.0600
1877.0000;24293.7900
1878.0000;24291.3500
1879.0000;24300.8000
1880.0000;24313.5300
1881.0000;24328.5300
1882.0000;24346.6700
1883.0000;24377.3900
1884.0000;24415.0900
1885.0000;24450.1300
1886.0000;24473.7900
1887.0000;24496.5400
1888.0000;24547.7600
1889.0000;24600.7900
1890.0000;24637.2500
1891.0000;24644.8800
1892.0000;24635.8400
1893.0000;24616.1600
1894.0000;24598.3000
1895.0000;24601.5900
1896.0000;24620.0800
1897.0000;24636.7700
1898.0000;24651.8700
1899.0000;24681.5400
1900.0000;24729.1400
1901.0000;24761.1700
1902.0000;24754.6700
1903.0000;24721.1200
1904.0000;24695.3600
1905.0000;24680.9100
1906.0000;24669.6500
1907.0000;24663.9800
1908.0000;24681.5700
1909.0000;24728.1100
1910.0000;24793.0700
1911.0000;24861.5200
1912.0000;24914.3900
1913.0000;24947.1100
1914.0000;24947.3300
1915.0000;24941.9900
1916.0000;24955.5700
1917.0000;24970.6400
1918.0000;24982.5800
1919.0000;24992.8000
1920.0000;25018.0700
1921.0000;25049.8200
1922.0000;25061.4200
1923.0000;25036.9500
1924.0000;25004.6500
1925.0000;24989.1900
1926.0000;24996.5900
1927.0000;25031.9800
1928.0000;25085.9100
1929.0000;25124.1600
1930.0000;25125.9400
1931.0000;25124.0200
1932.0000;25151.8100
1933.0000;25182.2200
1934.0000;25197.0300
1935.0000;25196.4500
1936.0000;25200.5500
1937.0000;25212.7000
1938.0000;25230.7500
1939.0000;25256.7200
1940.0000;25281.7800
1941.0000;25303.1600
1942.0000;25316.4000
1943.0000;25328.5400
1944.0000;25339.2000
1945.0000;25361.5900
1946.0000;25403.2500
1947.0000;25440.7300
1948.0000;25461.2400
1949.0000;25465.1600
1950.0000;25472.0800
1951.0000;25480.2600
1952.0000;25502.7300
1953.0000;25540.3700
1954.0000;25570.9600
1955.0000;25582.3800
1956.0000;25580.8200
1957.0000;25587.9000
1958.0000;25597.3200
1959.0000;25608.8700
1960.0000;25621.9000
1961.0000;25645.3300
1962.0000;25682.5400
1963.0000;25715.5000
1964.0000;25728.9100
1965.0000;25735.5900
1966.0000;25770.7100
1967.0000;25827.2100
1968.0000;25893.5300
1969.0000;25960.3500
1970.0000;26006.2200
1971.0000;26024.2100
1972.0000;26014.5400
1973.0000;26011.3300
1974.0000;26008.3500
1975.0000;26016.3000
1976.0000;26036.0900
1977.0000;26060.7200
1978.0000;26086.1800
1979.0000;26096.9000
1980.0000;26082.0800
1981.0000;26055.0300
1982.0000;26046.4900
1983.0000;26059.7400
1984.0000;26085.0300
1985.0000;26118.2000
1986.0000;26153.3300
1987.0000;26182.8600
1988.0000;26207.1000
1989.0000;26243.5200
1990.0000;26274.4000
1991.0000;26301.0400
1992.0000;26312.8900
1993.0000;26306.7900
1994.0000;26281.2100
1995.0000;26267.4900
1996.0000;26298.6600
1997.0000;26347.1000
1998.0000;26374.3500
1999.0000;26383.2600
2000.0000;26404.5200
2001.0000;26436.9800
2002.0000;26462.4900
2003.0000;26471.3400
2004.0000;26475.7700
2005.0000;26500.1300
2006.0000;26526.0600
2007.0000;26545.7900
2008.0000;26551.8200
2009.0000;26547.2500
2010.0000;26532.3300
2011.0000;26524.2500
2012.0000;26536.2900
2013.0000;26557.5200
2014.0000;26574.7600
2015.0000;26588.8400
2016.0000;26607.7000
2017.0000;26625.0400
2018.0000;26634.7100
2019.0000;26632.7800
2020.0000;26620.1000
2021.0000;26597.4900
2022.0000;26582.3600
2023.0000;26596.3000
2024.0000;26631.3300
2025.0000;26657.6800
2026.0000;26667.1000
2027.0000;26678.5100
2028.0000;26698.3500
2029.0000;26707.4000
2030.0000;26684.2100
2031.0000;26671.4500
2032.0000;26732.7900
2033.0000;26838.3100
2034.0000;26903.4200
2035.0000;26903.9000
2036.0000;26884.8300
2037.0000;26869.2800
2038.0000;26856.8200
2039.0000;26869.5000
2040.0000;26881.7300
2041.0000;26856.2400
2042.0000;26805.1900
2043.0000;26765.3800
2044.0000;26751.3800
2045.0000;26734.0300
2046.0000;26697.2300
2047.0000;26667.9000
2048.0000;26651.4700
2049.0000;26653.1600
2050.0000;26655.0000
2051.0000;26661.4600
2052.0000;26672.4900
2053.0000;26684.8500
2054.0000;26681.9700
2055.0000;26651.4100
2056.0000;26630.3000
2057.0000;26655.0700
2058.0000;26706.0500
2059.0000;26750.8900
2060.0000;26779.7700
2061.0000;26802.2800
2062.0000;26812.9900
2063.0000;26824.6200
2064.0000;26847.5400
2065.0000;26864.2000
2066.0000;26866.9100
2067.0000;26859.3600
2068.0000;26861.4700
2069.0000;26869.1900
2070.0000;26874.1400
2071.0000;26873.5500
2072.0000;26866.9900
2073.0000;26854.0400
2074.0000;26841.1100
2075.0000;26832.7800
2076.0000;26832.0800
2077.0000;26836.8600
2078.0000;26846.5800
2079.0000;26852.4600
2080.0000;26852.1200
2081.0000;26852.1100
2082.0000;26855.2800
2083.0000;26860.1700
2084.0000;26866.3800
2085.0000;26873.1200
2086.0000;26881.0900
2087.0000;26889.0200
2088.0000;26895.2700
2089.0000;26902.7800
2090.0000;26935.4300
2091.0000;27000.0100
2092.0000;27055.8100
2093.0000;27065.8100
2094.0000;27057.7400
2095.0000;27091.4200
2096.0000;27139.5700
2097.0000;27168.1000
2098.0000;27169.5400
2099.0000;27175.9900
2100.0000;27197.3200
2101.0000;27213.3400
2102.0000;27216.3500
2103.0000;27208.7500
2104.0000;27196.1700
2105.0000;27187.0900
2106.0000;27204.2400
2107.0000;27237.3100
2108.0000;27240.5900
2109.0000;27201.6500
2110.0000;27168.9700
2111.0000;27174.1000
2112.0000;27194.0000
2113.0000;27198.7000
2114.0000;27206.6900
2115.0000;27237.8800
2116.0000;27278.0800
2117.0000;27302.5300
2118.0000;27298.6700
2119.0000;27272.2400
2120.0000;27226.9300
2121.0000;27201.5600
2122.0000;27234.8200
2123.0000;27287.2200
2124.0000;27299.3500
2125.0000;27284.3000
2126.0000;27280.4400
2127.0000;27287.7000
2128.0000;27296.7900
2129.0000;27304.5600
2130.0000;27309.9300
2131.0000;27314.6300
2132.0000;27306.3100
2133.0000;27271.5600
2134.0000;27232.6000
2135.0000;27222.4400
2136.0000;27242.9600
2137.0000;27267.5600
2138.0000;27289.7400
2139.0000;27312.6400
2140.0000;27333.7600
2141.0000;27341.5400
2142.0000;27328.9000
2143.0000;27314.0200
2144.0000;27330.9200
2145.0000;27364.1000
2146.0000;27384.9100
2147.0000;27385.5100
2148.0000;27377.7800
2149.0000;27363.0400
2150.0000;27330.2800
2151.0000;27276.8600
2152.0000;27225.5000
2153.0000;27187.0800
2154.0000;27173.3600
2155.0000;27163.1600
2156.0000;27169.1100
2157.0000;27183.3300
2158.0000;27206.9500
2159.0000;27249.5700
2160.0000;27306.4800
2161.0000;27342.4200
2162.0000;27333.3100
2163.0000;27302.4200
2164.0000;27306.9300
2165.0000;27309.7000
2166.0000;27267.8800
2167.0000;27193.7100
2168.0000;27132.5100
2169.0000;27101.3500
2170.0000;27075.3400
2171.0000;27048.0900
2172.0000;27026.8500
2173.0000;27001.8800
2174.0000;26987.7400
2175.0000;26975.4600
2176.0000;26976.9700
2177.0000;26987.1400
2178.0000;27008.9400
2179.0000;27044.1700
2180.0000;27084.4300
2181.0000;27112.5500
2182.0000;27114.7100
2183.0000;27113.7300
2184.0000;27136.5600
2185.0000;27164.3600
2186.0000;27194.2600
2187.0000;27211.8600
2188.0000;27213.2500
2189.0000;27195.8200
2190.0000;27183.5500
2191.0000;27181.5000
2192.0000;27169.1100
2193.0000;27137.2000
2194.0000;27108.9700
2195.0000;27094.6500
2196.0000;27100.3500
2197.0000;27123.1100
2198.0000;27149.9800
2199.0000;27151.4700
2200.0000;27126.8100
2201.0000;27101.5600
2202.0000;27085.2700
2203.0000;27072.4300
2204.0000;27062.4000
2205.0000;27063.1000
2206.0000;27074.7800
2207.0000;27092.7400
2208.0000;27106.5400
2209.0000;27113.9800
2210.0000;27115.4400
2211.0000;27111.7200
2212.0000;27115.8800
2213.0000;27129.2200
2214.0000;27146.0800
2215.0000;27162.1600
2216.0000;27170.5400
2217.0000;27167.2900
2218.0000;27159.5000
2219.0000;27163.9300
2220.0000;27169.3800
2221.0000;27163.2900
2222.0000;27148.7500
2223.0000;27134.0500
2224.0000;27124.0000
2225.0000;27120.2800
2226.0000;27124.1700
2227.0000;27120.7200
2228.0000;27097.8800
2229.0000;27077.5400
2230.0000;27082.9500
2231.0000;27088.9200
2232.0000;27057.0600
2233.0000;27003.9900
2234.0000;26957.9200
2235.0000;26930.5700
2236.0000;26906.0100
2237.0000;26889.1700
2238.0000;26896.5300
2239.0000;26932.0600
2240.0000;26973.6900
2241.0000;26999.7000
2242.0000;27007.7500
2243.0000;27002.1400
2244.0000;26989.6400
2245.0000;27001.9400
2246.0000;27031.5500
2247.0000;27057.5900
2248.0000;27069.7000
2249.0000;27063.2400
2250.0000;27036.4700
2251.0000;27016.1800
2252.0000;27022.2000
2253.0000;27037.7600
2254.0000;27045.8100
2255.0000;27050.7900
2256.0000;27058.0100
2257.0000;27058.7000
2258.0000;27041.1400
2259.0000;27016.4000
2260.0000;27016.9800
2261.0000;27050.7800
2262.0000;27097.8200
2263.0000;27144.8200
2264.0000;27175.0900
2265.0000;27176.3500
2266.0000;27161.5600
2267.0000;27156.6100
2268.0000;27161.2900
2269.0000;27188.7100
2270.0000;27224.3000
2271.0000;27235.0300
2272.0000;27225.2300
2273.0000;27250.2700
2274.0000;27312.0500
2275.0000;27356.1500
2276.0000;27355.7500
2277.0000;27336.3300
2278.0000;27322.0700
2279.0000;27302.9400
2280.0000;27283.0800
2281.0000;27262.9000
2282.0000;27234.0100
2283.0000;27207.6000
2284.0000;27180.3100
2285.0000;27168.6500
2286.0000;27188.6800
2287.0000;27239.7400
2288.0000;27275.2500
2289.0000;27268.4300
2290.0000;27259.2400
2291.0000;27273.8900
2292.0000;27300.0000
2293.0000;27336.8700
2294.0000;27363.8200
2295.0000;27365.5900
2296.0000;27342.9300
2297.0000;27327.6300
2298.0000;27313.4100
2299.0000;27274.9700
2300.0000;27219.9700
2301.0000;27183.0500
2302.0000;27184.3100
2303.0000;27205.3800
2304.0000;27232.9400
2305.0000;27252.7900
2306.0000;27245.5700
2307.0000;27228.0800
2308.0000;27227.8000
2309.0000;27235.1700
2310.0000;27240.9700
2311.0000;27238.5500
2312.0000;27213.5700
2313.0000;27171.6200
2314.0000;27143.1700
2315.0000;27141.1300
2316.0000;27156.2400
2317.0000;27182.0100
2318.0000;27199.9800
2319.0000;27191.2500
2320.0000;27168.1900
2321.0000;27144.4700
2322.0000;27132.1900
2323.0000;27140.9100
2324.0000;27170.8100
2325.0000;27208.2300
2326.0000;27243.6800
2327.0000;27276.1500
2328.0000;27293.6400
2329.0000;27298.5700
2330.0000;27289.2300
2331.0000;27274.6800
2332.0000;27263.1100
2333.0000;27257.9100
2334.0000;27261.7900
2335.0000;27273.5000
2336.0000;27287.6700
2337.0000;27299.3000
2338.0000;27300.5600
2339.0000;27295.1600
2340.0000;27301.6600
2341.0000;27314.3000
2342.0000;27311.3100
2343.0000;27293.3000
2344.0000;27293.1700
2345.0000;27321.1400
2346.0000;27348.9200
2347.0000;27362.0600
2348.0000;27360.3700
2349.0000;27347.4300
2350.0000;27324.7000
2351.0000;27298.7800
2352.0000;27282.7900
2353.0000;27290.1900
2354.0000;27308.1200
2355.0000;27295.4800
2356.0000;27263.8200
2357.0000;27258.7900
2358.0000;27283.7300
2359.0000;27299.4400
2360.0000;27293.6700
2361.0000;27275.0300
2362.0000;27247.7100
2363.0000;27234.4200
2364.0000;27254.6700
2365.0000;27275.4500
2366.0000;27257.8300
2367.0000;27234.6000
2368.0000;27240.4000
2369.0000;27264.5000
2370.0000;27283.2900
2371.0000;27296.1800
2372.0000;27313.9800
2373.0000;27327.1500
2374.0000;27320.8200
2375.0000;27292.8400
2376.0000;27266.4600
2377.0000;27254.1700
2378.0000;27246.5800
2379.0000;27238.6300
2380.0000;27247.5300
2381.0000;27280.9100
2382.0000;27317.5000
2383.0000;27330.4400
2384.0000;27335.9600
2385.0000;27376.5100
2386.0000;27413.4400
2387.0000;27399.5900
2388.0000;27347.8500
2389.0000;27326.5500
2390.0000;27339.5600
2391.0000;27335.2600
2392.0000;27310.3700
2393.0000;27302.2000
2394.0000;27322.4900
2395.0000;27331.5000
2396.0000;27305.9600
2397.0000;27287.3600
2398.0000;27308.2200
2399.0000;27333.5100
2400.0000;27327.6700
2401.0000;27313.0600
2402.0000;27322.3000
2403.0000;27334.9800
2404.0000;27319.0900
2405.0000;27287.5200
2406.0000;27272.7000
2407.0000;27277.3200
2408.0000;27281.5300
2409.0000;27279.1800
2410.0000;27251.8600
2411.0000;27198.6700
2412.0000;27173.0100
2413.0000;27199.5200
2414.0000;27221.7100
2415.0000;27194.9000
2416.0000;27176.4900
2417.0000;27209.3200
2418.0000;27254.9000
2419.0000;27264.9000
2420.0000;27264.5300
2421.0000;27295.1500
2422.0000;27336.2200
2423.0000;27376.0500
2424.0000;27394.6400
2425.0000;27387.1000
2426.0000;27349.1000
2427.0000;27306.6500
2428.0000;27270.6900
2429.0000;27242.6600
2430.0000;27228.6200
2431.0000;27220.2700
2432.0000;27213.0200
2433.0000;27205.3200
2434.0000;27192.0200
2435.0000;27182.1300
2436.0000;27182.4500
2437.0000;27178.9100
2438.0000;27150.5600
2439.0000;27119.1700
2440.0000;27111.0900
2441.0000;27113.2800
2442.0000;27081.2200
2443.0000;27045.4000
2444.0000;27067.3100
2445.0000;27130.6300
2446.0000;27141.9900
2447.0000;27094.8100
2448.0000;27059.5200
2449.0000;27058.4400
2450.0000;27073.5500
2451.0000;27098.8800
2452.0000;27109.6800
2453.0000;27089.6000
2454.0000;27066.9400
2455.0000;27061.2400
2456.0000;27069.3800
2457.0000;27086.1300
2458.0000;27109.7000
2459.0000;27130.3700
2460.0000;27149.8500
2461.0000;27188.1100
2462.0000;27211.8300
2463.0000;27187.8600
2464.0000;27127.9000
2465.0000;27077.9100
2466.0000;27049.4500
2467.0000;27021.3100
2468.0000;27005.7900
2469.0000;27012.1700
2470.0000;27039.1200
2471.0000;27043.2900
2472.0000;27010.1400
2473.0000;26978.9300
2474.0000;26969.4400
2475.0000;26977.9200
2476.0000;27003.8500
2477.0000;27020.3600
2478.0000;26999.9200
2479.0000;26979.6700
2480.0000;26999.1000
2481.0000;27022.2200
2482.0000;27007.7800
2483.0000;26977.7600
2484.0000;26957.2200
2485.0000;26958.5400
2486.0000;26993.7400
2487.0000;27046.8800
2488.0000;27072.6400
2489.0000;27071.5600
2490.0000;27093.4700
2491.0000;27127.0000
2492.0000;27134.3000
2493.0000;27106.5700
2494.0000;27067.3600
2495.0000;27032.4500
2496.0000;27031.9800
2497.0000;27078.3700
2498.0000;27112.9700
2499.0000;27100.6600
2500.0000;27090.4000
2501.0000;27115.5000
2502.0000;27123.4700
2503.0000;27078.8300
2504.0000;27023.1900
2505.0000;26996.2800
2506.0000;26990.4600
2507.0000;26987.8000
2508.0000;26982.3700
2509.0000;26939.7700
2510.0000;26890.0900
2511.0000;26865.0700
2512.0000;26869.8400
2513.0000;26878.3700
2514.0000;26892.6600
2515.0000;26904.4200
2516.0000;26911.1600
2517.0000;26922.4000
2518.0000;26930.4600
2519.0000;26909.3500
2520.0000;26861.2600
2521.0000;26837.3400
2522.0000;26858.3700
2523.0000;26886.9600
2524.0000;26905.0500
2525.0000;26908.2000
2526.0000;26890.8800
2527.0000;26863.7300
2528.0000;26838.0400
2529.0000;26816.2400
2530.0000;26797.7400
2531.0000;26792.6300
2532.0000;26798.5200
2533.0000;26817.0700
2534.0000;26848.7200
2535.0000;26862.2500
2536.0000;26822.8500
2537.0000;26766.4300
2538.0000;26761.4700
2539.0000;26784.6200
2540.0000;26778.3000
2541.0000;26754.9800
2542.0000;26738.1800
2543.0000;26727.8400
2544.0000;26706.1700
2545.0000;26683.5100
2546.0000;26675.5800
2547.0000;26683.8900
2548.0000;26680.3500
2549.0000;26662.4200
2550.0000;26650.6200
2551.0000;26646.6900
2552.0000;26614.4900
2553.0000;26550.4500
2554.0000;26523.0100
2555.0000;26560.0300
2556.0000;26586.1100
2557.0000;26560.2500
2558.0000;26532.5600
2559.0000;26529.7200
2560.0000;26542.8100
2561.0000;26568.6800
2562.0000;26579.5100
2563.0000;26546.2200
2564.0000;26509.7700
2565.0000;26511.2800
2566.0000;26522.9600
2567.0000;26506.3500
2568.0000;26490.4100
2569.0000;26503.2500
2570.0000;26522.2000
2571.0000;26512.3700
2572.0000;26487.2100
2573.0000;26464.7300
2574.0000;26456.2100
2575.0000;26468.6100
2576.0000;26499.2400
2577.0000;26532.0200
2578.0000;26556.0500
2579.0000;26569.2500
2580.0000;26563.9600
2581.0000;26550.5900
2582.0000;26528.5500
2583.0000;26497.0200
2584.0000;26464.8500
2585.0000;26434.9800
2586.0000;26420.5400
2587.0000;26431.8600
2588.0000;26468.5600
2589.0000;26497.1300
2590.0000;26501.4800
2591.0000;26494.1200
2592.0000;26478.7500
2593.0000;26461.2800
2594.0000;26448.5700
2595.0000;26431.3200
2596.0000;26407.4900
2597.0000;26385.4800
2598.0000;26370.0000
2599.0000;26360.5600
2600.0000;26354.6600
2601.0000;26341.7800
2602.0000;26309.3200
2603.0000;26278.1200
2604.0000;26257.4300
2605.0000;26264.1400
2606.0000;26307.0700
2607.0000;26345.6100
2608.0000;26326.5900
2609.0000;26297.7500
2610.0000;26319.8200
2611.0000;26361.6300
2612.0000;26388.2400
2613.0000;26406.6200
2614.0000;26429.0000
2615.0000;26454.5700
2616.0000;26511.4100
2617.0000;26554.7100
2618.0000;26543.8800
2619.0000;26490.7600
2620.0000;26453.3300
2621.0000;26430.8300
2622.0000;26407.8900
2623.0000;26393.8100
2624.0000;26373.8700
2625.0000;26361.4400
2626.0000;26367.4600
2627.0000;26386.7900
2628.0000;26386.6600
2629.0000;26372.9200
2630.0000;26372.8100
2631.0000;26394.1500
2632.0000;26448.8800
2633.0000;26516.5800
2634.0000;26534.0100
2635.0000;26492.8400
2636.0000;26458.7100
2637.0000;26447.6900
2638.0000;26448.4200
2639.0000;26455.5900
2640.0000;26425.8000
2641.0000;26362.0500
2642.0000;26329.4700
2643.0000;26351.3000
2644.0000;26382.4900
2645.0000;26406.3000
2646.0000;26417.9300
2647.0000;26411.1700
2648.0000;26412.5800
2649.0000;26428.9300
2650.0000;26421.4600
2651.0000;26376.7400
2652.0000;26326.4500
2653.0000;26288.8300
2654.0000;26264.8600
2655.0000;26256.7100
2656.0000;26243.0100
2657.0000;26210.6100
2658.0000;26200.4200
2659.0000;26231.4400
2660.0000;26258.3700
2661.0000;26249.3700
2662.0000;26243.0300
2663.0000;26263.2000
2664.0000;26258.0800
2665.0000;26196.4400
2666.0000;26152.8700
2667.0000;26177.6600
2668.0000;26205.8700
2669.0000;26190.2700
2670.0000;26148.5400
2671.0000;26089.6200
2672.0000;26032.4300
2673.0000;25993.5500
2674.0000;25975.7000
2675.0000;25970.9600
2676.0000;25968.9100
2677.0000;25944.7100
2678.0000;25919.0600
2679.0000;25901.6600
2680.0000;25898.0800
2681.0000;25910.0900
2682.0000;25917.4300
2683.0000;25893.1400
2684.0000;25867.3900
2685.0000;25866.0400
2686.0000;25881.5000
2687.0000;25906.2600
2688.0000;25916.0600
2689.0000;25885.7400
2690.0000;25841.5600
2691.0000;25818.2700
2692.0000;25809.3800
2693.0000;25799.0800
2694.0000;25797.0800
2695.0000;25795.8300
2696.0000;25801.9300
2697.0000;25813.9100
2698.0000;25829.4500
2699.0000;25845.9800
2700.0000;25856.7900
2701.0000;25861.9700
2702.0000;25859.0600
2703.0000;25854.5400
2704.0000;25848.9700
2705.0000;25850.9900
2706.0000;25847.1600
2707.0000;25819.5300
2708.0000;25791.8400
2709.0000;25790.6300
2710.0000;25795.5300
2711.0000;25764.9500
2712.0000;25745.4200
2713.0000;25782.5900
2714.0000;25831.5700
2715.0000;25833.2800
2716.0000;25815.2200
2717.0000;25824.1200
2718.0000;25826.6600
2719.0000;25798.5200
2720.0000;25755.7000
2721.0000;25711.3800
2722.0000;25687.2900
2723.0000;25697.4400
2724.0000;25714.0300
2725.0000;25683.1100
2726.0000;25637.6100
2727.0000;25609.7600
2728.0000;25586.4600
2729.0000;25532.6500
2730.0000;25508.8300
2731.0000;25557.6900
2732.0000;25630.6800
2733.0000;25648.5400
2734.0000;25650.5200
2735.0000;25684.8700
2736.0000;25720.5900
2737.0000;25750.8800
2738.0000;25754.9000
2739.0000;25734.3600
2740.0000;25687.6900
2741.0000;25624.7700
2742.0000;25576.4700
2743.0000;25560.0700
2744.0000;25573.3800
2745.0000;25588.8300
2746.0000;25616.4400
2747.0000;25656.7100
2748.0000;25672.3300
2749.0000;25638.1700
2750.0000;25592.5200
2751.0000;25581.4900
2752.0000;25578.6600
2753.0000;25561.0700
2754.0000;25553.7100
2755.0000;25568.3000
2756.0000;25576.9800
2757.0000;25555.8300
2758.0000;25528.1700
2759.0000;25514.1900
2760.0000;25493.6600
2761.0000;25455.3300
2762.0000;25430.9000
2763.0000;25439.4000
2764.0000;25445.1800
2765.0000;25422.5800
2766.0000;25408.1000
2767.0000;25420.0000
2768.0000;25443.0800
2769.0000;25465.4600
2770.0000;25465.4900
2771.0000;25432.1200
2772.0000;25420.1600
2773.0000;25456.2700
2774.0000;25470.7100
2775.0000;25432.8000
2776.0000;25399.8200
2777.0000;25393.9100
2778.0000;25377.9100
2779.0000;25343.4600
2780.0000;25312.4200
2781.0000;25298.2200
2782.0000;25305.5600
2783.0000;25336.7100
2784.0000;25377.1600
2785.0000;25416.4700
2786.0000;25455.7800
2787.0000;25482.2000
2788.0000;25488.6900
2789.0000;25472.1200
2790.0000;25465.5600
2791.0000;25469.5700
2792.0000;25456.1900
2793.0000;25422.2900
2794.0000;25373.7700
2795.0000;25324.7300
2796.0000;25279.3400
2797.0000;25256.6600
2798.0000;25254.6000
2799.0000;25270.9400
2800.0000;25264.7100
2801.0000;25246.7900
2802.0000;25246.5100
2803.0000;25263.6300
2804.0000;25280.8700
2805.0000;25300.0000
2806.0000;25331.6700
2807.0000;25359.5800
2808.0000;25371.7600
2809.0000;25367.4600
2810.0000;25372.3900
2811.0000;25370.6000
2812.0000;25354.2500
2813.0000;25323.4100
2814.0000;25277.7300
2815.0000;25240.4900
2816.0000;25219.3100
2817.0000;25232.8700
2818.0000;25275.3300
2819.0000;25327.7600
2820.0000;25360.3400
2821.0000;25376.8600
2822.0000;25392.0200
2823.0000;25383.0700
2824.0000;25343.8900
2825.0000;25323.4600
2826.0000;25360.7600
2827.0000;25386.6100
2828.0000;25356.8700
2829.0000;25325.9200
2830.0000;25323.6400
2831.0000;25310.8900
2832.0000;25275.6700
2833.0000;25241.4100
2834.0000;25221.6600
2835.0000;25216.1100
2836.0000;25227.1600
2837.0000;25252.9600
2838.0000;25282.6400
2839.0000;25293.1000
2840.0000;25274.3100
2841.0000;25239.7400
2842.0000;25201.9700
2843.0000;25182.0300
2844.0000;25179.0000
2845.0000;25141.1200
2846.0000;25087.1500
2847.0000;25059.3600
2848.0000;25064.1600
2849.0000;25062.8400
2850.0000;25068.1300
2851.0000;25093.8600
2852.0000;25121.5300
2853.0000;25124.2000
2854.0000;25107.5200
2855.0000;25094.4100
2856.0000;25091.0000
2857.0000;25114.5300
2858.0000;25130.4800
2859.0000;25100.1200
2860.0000;25053.0400
2861.0000;25017.8700
2862.0000;25003.9600
2863.0000;25014.1900
2864.0000;25025.9300
2865.0000;25012.2400
2866.0000;25009.1800
2867.0000;25034.5200
2868.0000;25061.7700
2869.0000;25073.6900
2870.0000;25069.9600
2871.0000;25049.5700
2872.0000;25019.1900
2873.0000;24989.0300
2874.0000;24980.5900
2875.0000;24998.7200
2876.0000;25008.5800
2877.0000;25002.6100
2878.0000;24985.5300
2879.0000;24967.9300
2880.0000;24978.5100
2881.0000;25006.4400
2882.0000;25000.5500
2883.0000;24976.8800
2884.0000;24982.9700
2885.0000;25003.4500
2886.0000;25005.4300
2887.0000;24995.4100
2888.0000;24991.3800
2889.0000;24977.6400
2890.0000;24942.4300
2891.0000;24894.5600
2892.0000;24838.8600
2893.0000;24802.2000
2894.0000;24793.4700
2895.0000;24811.1500
2896.0000;24838.3800
2897.0000;24880.4900
2898.0000;24928.9500
2899.0000;24986.9900
2900.0000;25048.8400
2901.0000;25105.8100
2902.0000;25144.8500
2903.0000;25175.8100
2904.0000;25190.6100
2905.0000;25191.2100
2906.0000;25174.6900
2907.0000;25150.6700
2908.0000;25122.5600
2909.0000;25086.7700
2910.0000;25055.4700
2911.0000;25039.2100
2912.0000;25023.6000
2913.0000;24951.9800
2914.0000;24877.1900
2915.0000;24854.3600
2916.0000;24864.7800
2917.0000;24847.9800
2918.0000;24839.7000
2919.0000;24855.5900
2920.0000;24865.3100
2921.0000;24842.8800
2922.0000;24825.6000
2923.0000;24835.9400
2924.0000;24843.1800
2925.0000;24834.1300
2926.0000;24834.1500
2927.0000;24846.8900
2928.0000;24844.1900
2929.0000;24819.0200
2930.0000;24779.3500
2931.0000;24738.2300
2932.0000;24709.7800
2933.0000;24707.5600
2934.0000;24716.8200
2935.0000;24738.1700
2936.0000;24761.2600
2937.0000;24772.6200
2938.0000;24763.9200
2939.0000;24735.1100
2940.0000;24695.6200
2941.0000;24668.6400
2942.0000;24678.6100
2943.0000;24682.4000
2944.0000;24639.0100
2945.0000;24609.3100
2946.0000;24624.0500
2947.0000;24646.0200
2948.0000;24655.1100
2949.0000;24645.9400
2950.0000;24616.1800
2951.0000;24587.0300
2952.0000;24561.6500
2953.0000;24508.2000
2954.0000;24445.1300
2955.0000;24393.7200
2956.0000;24377.7400
2957.0000;24378.9500
2958.0000;24410.3600
2959.0000;24461.4800
2960.0000;24504.9300
2961.0000;24503.5400
2962.0000;24490.7000
2963.0000;24517.7500
2964.0000;24539.2700
2965.0000;24528.5500
2966.0000;24500.7900
2967.0000;24470.2200
2968.0000;24444.5500
2969.0000;24436.0500
2970.0000;24452.0200
2971.0000;24489.9000
2972.0000;24519.2500
2973.0000;24532.3500
2974.0000;24556.4600
2975.0000;24572.5200
2976.0000;24547.4900
2977.0000;24499.4000
2978.0000;24480.0700
2979.0000;24469.7200
2980.0000;24417.8100
2981.0000;24382.2800
2982.0000;24413.4700
2983.0000;24434.0400
2984.0000;24377.7700
2985.0000;24324.5900
2986.0000;24320.5900
2987.0000;24323.5800
2988.0000;24317.8200
2989.0000;24286.9200
2990.0000;24243.4900
2991.0000;24262.3200
2992.0000;24331.5500
2993.0000;24349.8900
2994.0000;24328.7100
2995.0000;24349.9300
2996.0000;24393.7900
2997.0000;24439.4600
2998.0000;24457.6200
2999.0000;24430.7600
3000.0000;24390.2600
3001.0000;24381.9900
3002.0000;24378.2900
3003.0000;24364.2500
3004.0000;24350.1500
3005.0000;24340.1700
3006.0000;24341.3600
3007.0000;24347.4700
3008.0000;24309.7700
3009.0000;24239.0400
3010.0000;24194.0800
3011.0000;24187.5100
3012.0000;24187.1400
3013.0000;24193.2900
3014.0000;24179.3500
3015.0000;24166.5700
3016.0000;24173.4600
3017.0000;24192.1700
3018.0000;24212.3200
3019.0000;24225.6300
3020.0000;24225.3000
3021.0000;24231.3400
3022.0000;24244.7000
3023.0000;24196.0800
3024.0000;24092.4900
3025.0000;24029.3400
3026.0000;24025.3500
3027.0000;24008.7300
3028.0000;23998.8300
3029.0000;24009.5500
3030.0000;24028.4300
3031.0000;24030.2200
3032.0000;24015.4800
3033.0000;23987.0200
3034.0000;23964.3600
3035.0000;23962.9600
3036.0000;23950.8800
3037.0000;23918.4900
3038.0000;23907.9500
3039.0000;23928.7200
3040.0000;23943.0200
3041.0000;23942.1200
3042.0000;23935.8500
3043.0000;23919.1700
3044.0000;23884.0700
3045.0000;23854.3100
3046.0000;23856.7600
3047.0000;23876.8800
3048.0000;23887.4500
3049.0000;23893.7300
3050.0000;23896.2400
3051.0000;23871.5500
3052.0000;23817.2000
3053.0000;23780.9700
3054.0000;23777.4700
3055.0000;23767.6900
3056.0000;23745.8900
3057.0000;23693.7900
3058.0000;23639.3000
3059.0000;23614.6100
3060.0000;23617.8200
3061.0000;23612.9800
3062.0000;23606.7900
3063.0000;23592.8000
3064.0000;23577.5700
3065.0000;23566.7300
3066.0000;23586.8100
3067.0000;23642.2300
3068.0000;23701.4100
3069.0000;23741.0400
3070.0000;23751.4000
3071.0000;23727.5700
3072.0000;23702.9100
3073.0000;23681.0000
3074.0000;23670.9100
3075.0000;23658.8900
3076.0000;23624.9100
3077.0000;23582.1200
3078.0000;23537.7500
3079.0000;23505.0100
3080.0000;23494.6600
3081.0000;23509.2500
3082.0000;23541.7400
3083.0000;23549.2000
3084.0000;23535.6100
3085.0000;23544.0900
3086.0000;23570.0400
3087.0000;23601.9600
3088.0000;23634.2600
3089.0000;23665.0000
3090.0000;23679.3000
3091.0000;23675.0400
3092.0000;23639.2700
3093.0000;23580.4000
3094.0000;23546.9100
3095.0000;23556.0900
3096.0000;23565.8200
3097.0000;23578.8700
3098.0000;23611.2300
3099.0000;23637.3400
3100.0000;23619.9200
3101.0000;23597.7300
3102.0000;23624.4600
3103.0000;23645.9400
3104.0000;23628.1800
3105.0000;23617.2600
3106.0000;23626.8000
3107.0000;23607.4300
3108.0000;23558.0200
3109.0000;23504.1100
3110.0000;23472.4800
3111.0000;23485.2600
3112.0000;23512.9400
3113.0000;23490.6300
3114.0000;23437.7900
3115.0000;23373.6300
3116.0000;23328.9100
3117.0000;23326.2200
3118.0000;23317.4400
3119.0000;23291.2600
3120.0000;23265.6800
3121.0000;23244.5900
3122.0000;23206.4100
3123.0000;23183.0200
3124.0000;23215.3900
3125.0000;23250.3100
3126.0000;23212.5600
3127.0000;23171.5200
3128.0000;23174.6800
3129.0000;23178.0900
3130.0000;23164.3000
3131.0000;23121.6000
3132.0000;23067.4700
3133.0000;23065.1500
3134.0000;23095.1600
3135.0000;23069.9800
3136.0000;23030.8800
3137.0000;23023.3300
3138.0000;23042.7400
3139.0000;23079.2000
3140.0000;23099.3100
3141.0000;23085.4900
3142.0000;23100.5100
3143.0000;23137.2300
3144.0000;23113.9000
3145.0000;23046.9700
3146.0000;23008.4200
3147.0000;22993.7400
3148.0000;22970.7600
3149.0000;22962.0800
3150.0000;22970.0500
3151.0000;22962.1200
3152.0000;22923.4900
3153.0000;22884.7900
3154.0000;22862.0000
3155.0000;22859.5500
3156.0000;22868.8200
3157.0000;22843.5500
3158.0000;22813.7000
3159.0000;22816.0400
3160.0000;22829.0200
3161.0000;22831.0200
3162.0000;22820.6700
3163.0000;22795.8000
3164.0000;22754.5500
3165.0000;22715.8400
3166.0000;22712.4500
3167.0000;22742.7600
3168.0000;22766.1900
3169.0000;22770.4500
3170.0000;22742.6100
3171.0000;22711.2700
3172.0000;22704.2800
3173.0000;22703.8900
3174.0000;22703.4700
3175.0000;22696.0100
3176.0000;22680.5900
3177.0000;22660.5400
3178.0000;22639.3000
3179.0000;22608.9300
3180.0000;22594.7600
3181.0000;22608.1100
3182.0000;22638.0100
3183.0000;22667.9100
3184.0000;22696.8800
3185.0000;22712.8700
3186.0000;22710.3400
3187.0000;22679.2800
3188.0000;22613.5700
3189.0000;22554.4400
3190.0000;22548.2000
3191.0000;22571.0600
3192.0000;22584.9600
3193.0000;22596.9200
3194.0000;22601.7100
3195.0000;22598.4700
3196.0000;22589.4800
3197.0000;22589.4300
3198.0000;22592.1900
3199.0000;22578.2500
3200.0000;22570.1000
3201.0000;22592.2200
3202.0000;22586.6400
3203.0000;22528.2700
3204.0000;22502.1200
3205.0000;22526.3400
3206.0000;22520.9700
3207.0000;22497.5700
3208.0000;22499.2900
3209.0000;22520.6700
3210.0000;22552.3900
3211.0000;22553.4900
3212.0000;22499.6900
3213.0000;22459.0300
3214.0000;22459.3800
3215.0000;22456.7300
3216.0000;22445.1400
3217.0000;22412.9400
3218.0000;22381.3400
3219.0000;22376.2100
3220.0000;22384.6900
3221.0000;22389.1400
3222.0000;22360.4300
3223.0000;22294.9300
3224.0000;22256.4300
3225.0000;22253.9500
3226.0000;22230.0200
3227.0000;22207.9200
3228.0000;22209.1900
3229.0000;22212.8400
3230.0000;22193.6000
3231.0000;22183.1600
3232.0000;22188.9000
3233.0000;22163.0600
3234.0000;22109.1700
3235.0000;22067.1300
3236.0000;22045.3300
3237.0000;22026.2100
3238.0000;22020.6000
3239.0000;22021.7000
3240.0000;22011.6200
3241.0000;21984.0900
3242.0000;21967.3200
3243.0000;21963.9500
3244.0000;21935.9900
3245.0000;21911.3900
3246.0000;21932.6100
3247.0000;21957.0800
3248.0000;21943.9800
3249.0000;21896.2900
3250.0000;21831.0800
3251.0000;21806.3100
3252.0000;21829.2000
3253.0000;21817.0000
3254.0000;21808.9100
3255.0000;21859.0100
3256.0000;21915.9900
3257.0000;21933.9000
3258.0000;21957.3700
3259.0000;21995.0100
3260.0000;22019.4300
3261.0000;22020.3200
3262.0000;22015.4800
3263.0000;22001.5300
3264.0000;21987.8400
3265.0000;21966.6300
3266.0000;21936.8900
3267.0000;21902.1400
3268.0000;21871.3700
3269.0000;21838.8800
3270.0000;21822.0100
3271.0000;21825.8400
3272.0000;21845.4300
3273.0000;21863.6000
3274.0000;21835.3900
3275.0000;21746.6500
3276.0000;21681.5800
3277.0000;21667.5200
3278.0000;21633.5800
3279.0000;21622.7000
3280.0000;21685.6000
3281.0000;21751.5700
3282.0000;21743.8300
3283.0000;21753.4700
3284.0000;21804.8100
3285.0000;21823.8000
3286.0000;21803.9500
3287.0000;21796.1100
3288.0000;21785.9400
3289.0000;21759.6900
3290.0000;21733.2800
3291.0000;21715.7900
3292.0000;21676.1500
3293.0000;21618.0600
3294.0000;21563.2100
3295.0000;21534.7900
3296.0000;21526.8000
3297.0000;21522.9700
3298.0000;21486.5800
3299.0000;21468.5500
3300.0000;21481.2900
3301.0000;21458.6300
3302.0000;21404.5400
3303.0000;21351.2500
3304.0000;21329.5200
3305.0000;21359.1900
3306.0000;21381.5900
3307.0000;21350.2500
3308.0000;21313.7200
3309.0000;21288.6500
3310.0000;21271.5200
3311.0000;21261.0000
3312.0000;21230.3100
3313.0000;21209.4800
3314.0000;21213.9000
3315.0000;21218.0100
3316.0000;21210.1700
3317.0000;21194.1900
3318.0000;21180.0500
3319.0000;21185.1100
3320.0000;21200.8500
3321.0000;21211.1500
3322.0000;21200.8600
3323.0000;21164.5800
3324.0000;21125.5400
3325.0000;21092.2900
3326.0000;21049.1100
3327.0000;21015.9500
3328.0000;21000.5500
3329.0000;20995.0900
3330.0000;20985.1800
3331.0000;20961.8900
3332.0000;20934.7800
3333.0000;20931.3100
3334.0000;20955.9700
3335.0000;20989.6800
3336.0000;21027.5700
3337.0000;21060.2300
3338.0000;21068.2400
3339.0000;21045.7600
3340.0000;21016.0400
3341.0000;20994.0100
3342.0000;20993.5800
3343.0000;21002.2900
3344.0000;20998.8900
3345.0000;20985.2600
3346.0000;20964.2200
3347.0000;20941.6300
3348.0000;20935.0400
3349.0000;20966.5800
3350.0000;21000.3800
3351.0000;20991.3900
3352.0000;20995.8400
3353.0000;21030.1400
3354.0000;21047.3500
3355.0000;21036.2700
3356.0000;21004.6600
3357.0000;20986.3700
3358.0000;21020.8500
3359.0000;21034.5700
3360.0000;20998.2400
3361.0000;20988.1100
3362.0000;20994.2500
3363.0000;20939.2400
3364.0000;20891.9400
3365.0000;20925.5800
3366.0000;20956.9000
3367.0000;20945.3300
3368.0000;20937.7700
3369.0000;20934.8700
3370.0000;20922.9900
3371.0000;20907.4700
3372.0000;20893.3100
3373.0000;20882.0200
3374.0000;20875.4200
3375.0000;20869.0300
3376.0000;20877.0500
3377.0000;20934.3600
3378.0000;20973.4700
3379.0000;20926.3700
3380.0000;20875.3600
3381.0000;20866.6300
3382.0000;20857.4600
3383.0000;20842.9600
3384.0000;20802.2500
3385.0000;20779.2100
3386.0000;20809.8900
3387.0000;20823.4200
3388.0000;20793.4800
3389.0000;20775.8700
3390.0000;20773.6500
3391.0000;20770.7800
3392.0000;20761.1000
3393.0000;20735.7800
3394.0000;20705.3300
3395.0000;20676.6300
3396.0000;20643.4000
3397.0000;20610.5500
3398.0000;20566.0300
3399.0000;20537.4700
3400.0000;20536.6600
3401.0000;20535.6200
3402.0000;20524.6200
3403.0000;20504.2200
3404.0000;20482.4600
3405.0000;20462.6400
3406.0000;20468.9000
3407.0000;20507.6600
3408.0000;20541.0700
3409.0000;20548.0100
3410.0000;20522.2300
3411.0000;20489.4900
3412.0000;20493.5300
3413.0000;20505.4700
3414.0000;20503.1200
3415.0000;20454.8600
3416.0000;20381.5100
3417.0000;20344.1400
3418.0000;20333.6200
3419.0000;20317.7900
3420.0000;20306.0800
3421.0000;20297.5900
3422.0000;20285.2600
3423.0000;20275.6400
3424.0000;20273.3900
3425.0000;20275.7600
3426.0000;20276.1600
3427.0000;20269.4100
3428.0000;20253.8200
3429.0000;20227.8900
3430.0000;20207.7700
3431.0000;20207.6400
3432.0000;20220.9400
3433.0000;20237.0200
3434.0000;20250.3800
3435.0000;20256.4100
3436.0000;20266.6900
3437.0000;20258.5700
3438.0000;20219.3500
3439.0000;20189.0100
3440.0000;20187.2900
3441.0000;20196.5000
3442.0000;20193.2800
3443.0000;20132.7800
3444.0000;20069.2400
3445.0000;20048.5400
3446.0000;20076.7300
3447.0000;20136.2000
3448.0000;20157.8900
3449.0000;20158.8500
3450.0000;20178.9900
3451.0000;20185.1600
3452.0000;20165.4000
3453.0000;20119.2000
3454.0000;20075.1000
3455.0000;20077.2900
3456.0000;20093.2800
3457.0000;20085.6000
3458.0000;20070.0600
3459.0000;20051.9700
3460.0000;20031.3900
3461.0000;20029.0600
3462.0000;20062.0500
3463.0000;20079.3200
3464.0000;20053.9300
3465.0000;20004.5800
3466.0000;19953.8000
3467.0000;19922.1000
3468.0000;19912.2400
3469.0000;19911.5500
3470.0000;19933.5800
3471.0000;19960.5200
3472.0000;19937.9900
3473.0000;19895.3000
3474.0000;19880.1400
3475.0000;19893.0100
3476.0000;19924.4800
3477.0000;19922.3400
3478.0000;19890.7600
3479.0000;19866.4000
3480.0000;19836.3600
3481.0000;19797.7600
3482.0000;19760.9800
3483.0000;19737.3400
3484.0000;19713.8600
3485.0000;19704.8400
3486.0000;19707.9000
3487.0000;19710.5800
3488.0000;19703.4400
3489.0000;19676.4800
3490.0000;19654.2300
3491.0000;19672.2800
3492.0000;19678.3700
3493.0000;19648.5300
3494.0000;19639.9600
3495.0000;19653.2000
3496.0000;19655.7900
3497.0000;19656.4200
3498.0000;19658.6600
3499.0000;19665.8800
3500.0000;19672.8800
3501.0000;19670.1100
3502.0000;19646.7700
3503.0000;19602.3400
3504.0000;19546.2400
3505.0000;19501.9700
3506.0000;19490.8100
3507.0000;19505.4000
3508.0000;19503.4200
3509.0000;19482.8100
3510.0000;19444.2600
3511.0000;19405.7900
3512.0000;19386.2700
3513.0000;19393.1100
3514.0000;19393.6700
3515.0000;19358.2400
3516.0000;19307.7500
3517.0000;19270.5000
3518.0000;19277.5400
3519.0000;19305.1800
3520.0000;19309.7300
3521.0000;19319.9300
3522.0000;19336.9400
3523.0000;19356.1200
3524.0000;19358.8600
3525.0000;19332.4400
3526.0000;19320.7300
3527.0000;19329.7000
3528.0000;19283.5900
3529.0000;19223.5600
3530.0000;19218.2200
3531.0000;19230.8700
3532.0000;19231.5600
3533.0000;19187.7700
3534.0000;19124.7600
3535.0000;19098.8400
3536.0000;19103.9600
3537.0000;19124.6200
3538.0000;19124.7400
3539.0000;19112.9000
3540.0000;19135.4000
3541.0000;19158.8400
3542.0000;19156.9500
3543.0000;19133.7200
3544.0000;19094.0900
3545.0000;19057.0500
3546.0000;19009.0100
3547.0000;18942.5500
3548.0000;18887.7400
3549.0000;18861.3600
3550.0000;18825.7200
3551.0000;18801.2700
3552.0000;18788.5200
3553.0000;18766.1500
3554.0000;18734.9200
3555.0000;18714.9500
3556.0000;18714.1600
3557.0000;18726.2100
3558.0000;18741.4100
3559.0000;18746.3100
3560.0000;18721.5000
3561.0000;18698.5300
3562.0000;18722.4600
3563.0000;18723.5600
3564.0000;18683.9600
3565.0000;18662.7400
3566.0000;18661.2300
3567.0000;18660.9600
3568.0000;18661.4300
3569.0000;18656.0100
3570.0000;18629.3800
3571.0000;18604.5900
3572.0000;18615.1800
3573.0000;18621.2700
3574.0000;18603.2000
3575.0000;18591.7500
3576.0000;18570.6600
3577.0000;18509.0500
3578.0000;18449.4700
3579.0000;18426.8300
3580.0000;18459.8700
3581.0000;18504.2300
3582.0000;18466.3000
3583.0000;18442.9100
3584.0000;18473.5500
3585.0000;18448.5500
3586.0000;18389.5200
3587.0000;18359.2000
3588.0000;18356.4600
3589.0000;18375.0400
3590.0000;18385.0200
3591.0000;18381.0700
3592.0000;18367.5600
3593.0000;18348.1700
3594.0000;18332.9700
3595.0000;18330.4500
3596.0000;18350.6500
3597.0000;18394.2400
3598.0000;18432.6300
3599.0000;18444.1600
3600.0000;18437.1000
3601.0000;18412.7400
3602.0000;18387.3400
3603.0000;18370.5000
3604.0000;18371.8100
3605.0000;18396.5200
3606.0000;18419.6800
3607.0000;18403.9900
3608.0000;18365.4800
3609.0000;18328.7800
3610.0000;18337.4400
3611.0000;18373.5500
3612.0000;18390.0400
3613.0000;18393.8500
3614.0000;18381.2000
3615.0000;18352.0200
3616.0000;18317.8800
3617.0000;18293.2000
3618.0000;18266.1600
3619.0000;18248.1600
3620.0000;18267.7800
3621.0000;18272.1800
3622.0000;18208.1700
3623.0000;18158.3400
3624.0000;18143.7100
3625.0000;18117.9100
3626.0000;18107.4900
3627.0000;18116.0400
3628.0000;18085.6400
3629.0000;18038.7000
3630.0000;18054.9400
3631.0000;18087.9000
3632.0000;18096.4200
3633.0000;18103.6500
3634.0000;18099.5100
3635.0000;18070.2700
3636.0000;18048.5900
3637.0000;18055.3600
3638.0000;18072.3300
3639.0000;18081.1300
3640.0000;18057.5100
3641.0000;18030.1700
3642.0000;18014.7800
3643.0000;17993.9900
3644.0000;17977.5700
3645.0000;17970.5000
3646.0000;17947.6100
3647.0000;17909.4900
3648.0000;17872.3300
3649.0000;17872.1700
3650.0000;17925.1000
3651.0000;17938.3800
3652.0000;17897.0000
3653.0000;17864.4900
3654.0000;17842.8400
3655.0000;17836.8100
3656.0000;17841.0700
3657.0000;17842.5400
3658.0000;17814.4100
3659.0000;17785.1800
3660.0000;17772.4700
3661.0000;17753.7300
3662.0000;17727.4500
3663.0000;17687.0900
3664.0000;17655.2000
3665.0000;17641.5800
3666.0000;17628.1700
3667.0000;17607.2500
3668.0000;17566.4600
3669.0000;17556.9500
3670.0000;17581.4200
3671.0000;17576.6700
3672.0000;17581.7200
3673.0000;17615.5600
3674.0000;17620.9900
3675.0000;17597.9900
3676.0000;17587.1900
3677.0000;17558.0400
3678.0000;17509.4600
3679.0000;17466.3000
3680.0000;17447.7600
3681.0000;17454.1700
3682.0000;17476.0300
3683.0000;17497.8800
3684.0000;17507.6500
3685.0000;17489.8300
3686.0000;17447.5300
3687.0000;17434.4700
3688.0000;17446.4700
3689.0000;17422.5100
3690.0000;17407.5000
3691.0000;17417.4600
3692.0000;17389.6400
3693.0000;17350.8500
3694.0000;17348.5200
3695.0000;17352.6900
3696.0000;17346.0900
3697.0000;17309.1700
3698.0000;17272.4000
3699.0000;17265.5400
3700.0000;17271.6200
3701.0000;17276.2600
3702.0000;17246.9500
3703.0000;17243.3900
3704.0000;17287.6600
3705.0000;17308.8800
3706.0000;17304.7800
3707.0000;17293.0200
3708.0000;17296.1800
3709.0000;17307.1700
3710.0000;17270.8300
3711.0000;17233.5400
3712.0000;17236.1400
3713.0000;17241.2800
3714.0000;17242.9600
3715.0000;17238.1300
3716.0000;17224.1000
3717.0000;17207.1500
3718.0000;17206.5300
3719.0000;17214.1500
3720.0000;17213.6200
3721.0000;17220.1800
3722.0000;17221.8100
3723.0000;17191.6300
3724.0000;17139.8200
3725.0000;17089.1600
3726.0000;17068.4000
3727.0000;17058.9800
3728.0000;17011.6500
3729.0000;16982.4600
3730.0000;16992.0400
3731.0000;17020.1700
3732.0000;17047.7800
3733.0000;17045.8900
3734.0000;16991.6800
3735.0000;16924.6900
3736.0000;16915.6400
3737.0000;16910.6000
3738.0000;16892.4100
3739.0000;16879.4200
3740.0000;16876.6900
3741.0000;16880.7000
3742.0000;16865.2800
3743.0000;16827.0300
3744.0000;16772.2500
3745.0000;16733.9500
3746.0000;16730.4200
3747.0000;16731.3100
3748.0000;16723.5000
3749.0000;16692.1900
3750.0000;16670.9100
3751.0000;16668.8400
3752.0000;16673.1100
3753.0000;16674.4200
3754.0000;16669.8200
3755.0000;16685.9300
3756.0000;16692.5100
3757.0000;16664.1700
3758.0000;16656.5600
3759.0000;16669.6600
3760.0000;16667.9600
3761.0000;16675.5800
3762.0000;16695.9900
3763.0000;16711.8200
3764.0000;16719.3800
3765.0000;16720.4400
3766.0000;16712.4800
3767.0000;16695.3900
3768.0000;16673.5100
3769.0000;16646.6800
3770.0000;16624.5000
3771.0000;16616.0600
3772.0000;16618.7200
3773.0000;16621.2100
3774.0000;16635.4200
3775.0000;16648.3800
3776.0000;16639.7200
3777.0000;16632.0400
3778.0000;16631.1100
3779.0000;16613.2200
3780.0000;16603.6500
3781.0000;16615.6500
3782.0000;16601.6300
3783.0000;16574.5000
3784.0000;16565.8200
3785.0000;16580.0900
3786.0000;16606.0300
3787.0000;16611.5600
3788.0000;16596.7600
3789.0000;16570.6600
3790.0000;16542.8700
3791.0000;16536.2800
3792.0000;16562.9700
3793.0000;16567.4800
3794.0000;16538.5000
3795.0000;16499.8100
3796.0000;16476.5200
3797.0000;16477.4900
3798.0000;16450.5600
3799.0000;16432.8000
3800.0000;16450.0200
3801.0000;16414.3400
3802.0000;16349.1700
3803.0000;16323.4800
3804.0000;16302.9400
3805.0000;16278.2900
3806.0000;16238.0800
3807.0000;16218.4300
3808.0000;16229.4700
3809.0000;16206.7900
3810.0000;16158.2000
3811.0000;16106.9000
3812.0000;16085.8600
3813.0000;16093.0300
3814.0000;16080.0800
3815.0000;16060.8600
3816.0000;16043.0800
3817.0000;16035.2400
3818.0000;16033.6900
3819.0000;16026.4300
3820.0000;15979.2800
3821.0000;15938.8400
3822.0000;15970.0000
3823.0000;15980.6300
3824.0000;15949.0800
3825.0000;15909.5700
3826.0000;15869.4500
3827.0000;15839.1600
3828.0000;15805.8900
3829.0000;15785.1500
3830.0000;15778.3300
3831.0000;15761.9200
3832.0000;15757.8600
3833.0000;15792.2400
3834.0000;15781.0200
3835.0000;15730.7100
3836.0000;15727.3000
3837.0000;15727.2300
3838.0000;15710.6000
3839.0000;15698.3800
3840.0000;15673.5000
3841.0000;15631.1100
3842.0000;15628.5800
3843.0000;15644.7200
3844.0000;15627.1600
3845.0000;15627.3000
3846.0000;15643.4600
3847.0000;15636.2400
3848.0000;15637.1200
3849.0000;15658.3800
3850.0000;15694.3700
3851.0000;15709.7000
3852.0000;15687.2600
3853.0000;15677.0000
3854.0000;15686.5700
3855.0000;15710.8700
3856.0000;15711.7300
3857.0000;15678.5300
3858.0000;15624.3700
3859.0000;15589.9800
3860.0000;15594.0000
3861.0000;15605.6100
3862.0000;15604.3500
3863.0000;15583.7600
3864.0000;15604.5500
3865.0000;15627.0600
3866.0000;15614.2000
3867.0000;15609.3000
3868.0000;15600.5100
3869.0000;15570.0900
3870.0000;15547.0200
3871.0000;15536.2600
3872.0000;15519.9400
3873.0000;15491.0700
3874.0000;15460.0000
3875.0000;15460.2100
3876.0000;15435.9800
3877.0000;15372.7100
3878.0000;15358.9000
3879.0000;15364.3400
3880.0000;15345.4500
3881.0000;15317.8100
3882.0000;15299.2200
3883.0000;15304.5800
3884.0000;15321.6800
3885.0000;15325.6500
3886.0000;15285.2400
3887.0000;15250.7600
3888.0000;15233.8900
3889.0000;15185.7100
3890.0000;15131.3300
3891.0000;15091.6400
3892.0000;15057.5800
3893.0000;15061.3100
3894.0000;15099.4200
3895.0000;15110.5500
3896.0000;15092.2600
3897.0000;15060.7300
3898.0000;15029.5900
3899.0000;15009.1500
3900.0000;14998.0900
3901.0000;14986.3900
3902.0000;14977.9900
3903.0000;14980.9800
3904.0000;14962.0900
3905.0000;14933.4700
3906.0000;14963.9600
3907.0000;14970.2900
3908.0000;14916.5700
3909.0000;14855.0900
3910.0000;14816.5100
3911.0000;14822.0000
3912.0000;14849.9000
3913.0000;14881.3400
3914.0000;14889.2900
3915.0000;14895.9000
3916.0000;14895.4000
3917.0000;14886.5000
3918.0000;14908.1200
3919.0000;14937.3800
3920.0000;14922.2500
3921.0000;14912.8600
3922.0000;14915.7900
3923.0000;14910.6700
3924.0000;14892.8400
3925.0000;14874.0000
3926.0000;14885.7800
3927.0000;14889.7100
3928.0000;14860.9300
3929.0000;14800.2400
3930.0000;14752.0800
3931.0000;14750.3200
3932.0000;14773.7100
3933.0000;14790.6100
3934.0000;14769.0100
3935.0000;14730.7000
3936.0000;14688.4500
3937.0000;14656.4900
3938.0000;14637.8200
3939.0000;14632.2400
3940.0000;14625.1000
3941.0000;14594.4800
3942.0000;14557.8900
3943.0000;14544.2300
3944.0000;14544.0400
3945.0000;14558.1400
3946.0000;14584.2900
3947.0000;14590.9100
3948.0000;14575.6000
3949.0000;14574.4500
3950.0000;14540.6400
3951.0000;14478.6700
3952.0000;14437.7200
3953.0000;14414.8000
3954.0000;14405.0500
3955.0000;14386.0600
3956.0000;14373.8500
3957.0000;14369.7400
3958.0000;14349.9500
3959.0000;14333.2700
3960.0000;14328.0400
3961.0000;14306.5900
3962.0000;14267.7900
3963.0000;14218.4600
3964.0000;14178.9700
3965.0000;14133.0700
3966.0000;14070.2400
3967.0000;14059.6700
3968.0000;14072.3400
3969.0000;14050.8000
3970.0000;14011.7800
3971.0000;13973.8500
3972.0000;13954.7400
3973.0000;13923.4500
3974.0000;13895.1000
3975.0000;13886.8200
3976.0000;13864.6600
3977.0000;13856.8100
3978.0000;13900.7000
3979.0000;13909.8700
3980.0000;13889.9000
3981.0000;13898.9000
3982.0000;13901.1100
3983.0000;13902.7900
3984.0000;13928.6800
3985.0000;13927.6800
3986.0000;13897.1000
3987.0000;13872.7900
3988.0000;13854.9000
3989.0000;13836.9600
3990.0000;13792.1800
3991.0000;13801.0600
3992.0000;13843.5100
3993.0000;13800.6300
3994.0000;13781.6000
3995.0000;13808.2900
3996.0000;13814.5900
3997.0000;13809.7700
3998.0000;13809.0400
3999.0000;13847.1700
4000.0000;13862.8100
4001.0000;13841.7400
4002.0000;13840.2500
4003.0000;13818.5100
4004.0000;13783.6500
4005.0000;13782.9100
4006.0000;13788.6500
4007.0000;13783.9900
4008.0000;13769.6500
4009.0000;13763.6100
4010.0000;13769.6500
4011.0000;13773.9400
4012.0000;13738.2700
4013.0000;13670.1600
4014.0000;13631.8400
4015.0000;13597.9000
4016.0000;13566.0200
4017.0000;13544.7800
4018.0000;13554.6900
4019.0000;13583.9800
4020.0000;13589.9300
4021.0000;13573.7900
4022.0000;13542.8800
4023.0000;13505.2100
4024.0000;13489.2800
4025.0000;13496.7100
4026.0000;13487.3800
4027.0000;13460.6100
4028.0000;13420.1000
4029.0000;13373.1600
4030.0000;13335.5000
4031.0000;13313.0600
4032.0000;13283.0700
4033.0000;13279.5800
4034.0000;13299.1700
4035.0000;13305.0600
4036.0000;13281.3000
4037.0000;13247.5500
4038.0000;13256.5000
4039.0000;13254.1000
4040.0000;13226.2300
4041.0000;13190.1800
4042.0000;13154.0700
4043.0000;13128.6500
4044.0000;13112.3100
4045.0000;13109.3800
4046.0000;13114.3900
4047.0000;13112.3100
4048.0000;13126.6800
4049.0000;13141.9100
4050.0000;13129.5300
4051.0000;13127.3200
4052.0000;13134.0400
4053.0000;13133.1000
4054.0000;13126.6900
4055.0000;13123.1100
4056.0000;13131.4700
4057.0000;13150.7700
4058.0000;13150.4600
4059.0000;13112.2500
4060.0000;13122.0100
4061.0000;13158.3600
4062.0000;13172.5900
4063.0000;13141.4900
4064.0000;13091.3200
4065.0000;13064.4400
4066.0000;13053.9900
4067.0000;13044.7200
4068.0000;13023.6000
4069.0000;13019.6600
4070.0000;13023.0300
4071.0000;13022.1900
4072.0000;13019.1300
4073.0000;13004.2400
4074.0000;12977.5000
4075.0000;12945.9500
4076.0000;12913.3300
4077.0000;12874.2200
4078.0000;12802.7300
4079.0000;12749.6300
4080.0000;12725.2400
4081.0000;12681.3700
4082.0000;12642.8500
4083.0000;12616.5600
4084.0000;12592.2500
4085.0000;12577.6300
4086.0000;12572.7000
4087.0000;12566.9200
4088.0000;12538.0100
4089.0000;12511.1200
4090.0000;12515.7400
4091.0000;12522.2500
4092.0000;12519.1900
4093.0000;12504.2200
4094.0000;12509.2000
4095.0000;12536.2700
4096.0000;12565.0100
4097.0000;12545.7500
4098.0000;12532.8300
4099.0000;12547.0800
4100.0000;12516.9700
4101.0000;12492.8400
4102.0000;12484.1200
4103.0000;12445.4800
4104.0000;12389.2300
4105.0000;12323.0800
4106.0000;12245.7800
4107.0000;12159.3800
4108.0000;12063.4500
4109.0000;11946.7200
4110.0000;11826.7800
4111.0000;11732.3300
4112.0000;11664.2100
4113.0000;11526.3600
4114.0000;11366.3100
4115.0000;11244.7900
4116.0000;11126.1000
4117.0000;11014.4600
4118.0000;10892.8000
4119.0000;10728.8900
4120.0000;10586.2000
4121.0000;10467.3700
4122.0000;10295.3600
4123.0000;10108.0700
4124.0000;9950.7000
4125.0000;9828.8720
4126.0000;9685.3130
4127.0000;9534.2020
4128.0000;9393.1900
4129.0000;9248.9380
4130.0000;9085.5490
4131.0000;8892.8660
4132.0000;8746.2380
4133.0000;8628.6990
4134.0000;8494.1300
4135.0000;8298.9080
4136.0000;8111.2910
4137.0000;7971.6770
4138.0000;7843.8180
4139.0000;7714.2420
4140.0000;7578.7430
4141.0000;7428.9650
4142.0000;7287.2380
4143.0000;7162.0290
4144.0000;7034.4190
4145.0000;6900.3430
4146.0000;6803.8770
4147.0000;6752.4680
4148.0000;6675.3790
4149.0000;6592.2940
4150.0000;6512.5020
4151.0000;6420.7700
4152.0000;6355.9810
4153.0000;6317.3850
4154.0000;6257.3890
4155.0000;6209.7670
4156.0000;6168.3780
4157.0000;6109.5430
4158.0000;6038.9720
4159.0000;5930.8710
4160.0000;5799.1380
4161.0000;5775.0300
4162.0000;5778.0480
4163.0000;5735.5490
4164.0000;5657.7990
4165.0000;5605.1560
4166.0000;5589.8990
4167.0000;5563.2160
4168.0000;5551.3920
4169.0000;5541.8220
4170.0000;5515.3510
4171.0000;5489.4070
4172.0000;5488.3980
4173.0000;5508.0410
4174.0000;5484.8380
4175.0000;5465.6930
4176.0000;5457.8270
4177.0000;5414.3950
4178.0000;5385.6730
4179.0000;5368.6950
4180.0000;5332.4890
4181.0000;5311.3880
4182.0000;5306.3570
4183.0000;5302.9160
4184.0000;5285.9660
4185.0000;5281.2160
4186.0000;5288.1270
4187.0000;5261.6760
4188.0000;5258.5480
4189.0000;5278.9840
4190.0000;5286.4580
4191.0000;5320.4200
4192.0000;5347.7060
4193.0000;5335.7670
4194.0000;5329.6670
4195.0000;5320.2770
4196.0000;5303.6830
4197.0000;5279.4360
4198.0000;5251.5630
4199.0000;5227.3830
4200.0000;5209.4660
4201.0000;5187.4530
4202.0000;5170.8070
4203.0000;5170.1800
4204.0000;5198.8370
4205.0000;5218.6640
4206.0000;5207.6350
4207.0000;5191.2700
4208.0000;5200.9020
4209.0000;5220.3260
4210.0000;5207.2370
4211.0000;5193.1690
4212.0000;5193.0680
4213.0000;5204.8690
4214.0000;5185.5270
4215.0000;5175.8650
4216.0000;5179.7540
4217.0000;5151.2450
4218.0000;5148.8460
4219.0000;5149.8600
4220.0000;5112.7990
4221.0000;5111.3250
4222.0000;5128.9910
4223.0000;5134.3690
4224.0000;5113.2160
4225.0000;5081.2550
4226.0000;5069.4600
4227.0000;5096.9080
4228.0000;5077.5650
4229.0000;5052.0700
4230.0000;5068.8690
4231.0000;5054.0600
4232.0000;5053.0800
4233.0000;5072.8880
4234.0000;5071.4160
4235.0000;5040.2310
4236.0000;4518.5630
4237.0000;3215.4010
4238.0000;1713.0220
