Raman Shift ; Dark Subtracted #1
98.0000;2700.0870
99.0000;2706.5260
100.0000;2699.9090
101.0000;2690.4550
102.0000;2693.4880
103.0000;2701.9170
104.0000;2708.4570
105.0000;2711.1660
106.0000;2713.7680
107.0000;2717.3820
108.0000;2723.7120
109.0000;2741.1600
110.0000;2761.8140
111.0000;2769.4390
112.0000;2753.3530
113.0000;2734.8510
114.0000;2739.6820
115.0000;2757.7130
116.0000;2768.8260
117.0000;2766.8330
118.0000;2762.7790
119.0000;2766.3010
120.0000;2770.2000
121.0000;2768.8170
122.0000;2762.6600
123.0000;2758.3850
124.0000;2759.2750
125.0000;2763.9710
126.0000;2771.4090
127.0000;2779.3490
128.0000;2784.0050
129.0000;2782.9470
130.0000;2781.4180
131.0000;2787.3500
132.0000;2792.8090
133.0000;2790.2150
134.0000;2779.8420
135.0000;2771.1280
136.0000;2770.5960
137.0000;2774.4860
138.0000;2775.8590
139.0000;2778.4040
140.0000;2788.7520
141.0000;2807.9210
142.0000;2822.6670
143.0000;2823.4580
144.0000;2815.2350
145.0000;2815.1440
146.0000;2822.8330
147.0000;2828.0920
148.0000;2825.4610
149.0000;2819.6910
150.0000;2814.9030
151.0000;2812.6590
152.0000;2814.9680
153.0000;2822.9050
154.0000;2831.2130
155.0000;2837.7080
156.0000;2837.1870
157.0000;2824.3980
158.0000;2802.1130
159.0000;2791.7510
160.0000;2808.9200
161.0000;2826.2320
162.0000;2809.6490
163.0000;2774.4650
164.0000;2757.1040
165.0000;2769.7450
166.0000;2788.3210
167.0000;2792.0570
168.0000;2790.5240
169.0000;2790.5630
170.0000;2792.0740
171.0000;2797.2630
172.0000;2808.3010
173.0000;2814.3930
174.0000;2801.3880
175.0000;2782.9680
176.0000;2787.5110
177.0000;2819.7270
178.0000;2847.0670
179.0000;2844.5080
180.0000;2828.6380
181.0000;2824.3100
182.0000;2829.0980
183.0000;2835.4040
184.0000;2840.7990
185.0000;2843.3320
186.0000;2839.3090
187.0000;2833.2650
188.0000;2834.4900
189.0000;2843.7510
190.0000;2853.8270
191.0000;2859.9390
192.0000;2864.4950
193.0000;2873.9300
194.0000;2881.3980
195.0000;2878.9080
196.0000;2863.7940
197.0000;2852.8560
198.0000;2861.3370
199.0000;2874.2600
200.0000;2870.8590
201.0000;2854.2630
202.0000;2841.6120
203.0000;2840.9640
204.0000;2845.4590
205.0000;2848.9090
206.0000;2850.7250
207.0000;2845.0230
208.0000;2833.1170
209.0000;2827.2230
210.0000;2835.2330
211.0000;2848.7410
212.0000;2855.2810
213.0000;2857.4890
214.0000;2862.6200
215.0000;2870.9760
216.0000;2878.4380
217.0000;2881.9040
218.0000;2884.6040
219.0000;2896.4160
220.0000;2911.0150
221.0000;2913.5720
222.0000;2898.3900
223.0000;2882.8600
224.0000;2886.3020
225.0000;2897.8080
226.0000;2901.0000
227.0000;2896.2590
228.0000;2895.1230
229.0000;2902.3900
230.0000;2913.2450
231.0000;2927.2440
232.0000;2935.8290
233.0000;2927.8530
234.0000;2903.3240
235.0000;2884.6110
236.0000;2888.3720
237.0000;2901.4530
238.0000;2907.8820
239.0000;2908.9960
240.0000;2905.6420
241.0000;2898.2570
242.0000;2894.9980
243.0000;2904.4920
244.0000;2915.3660
245.0000;2914.5560
246.0000;2903.5650
247.0000;2890.8970
248.0000;2881.2060
249.0000;2881.4290
250.0000;2897.4900
251.0000;2921.7780
252.0000;2937.8180
253.0000;2944.3470
254.0000;2952.0190
255.0000;2963.8640
256.0000;2974.0000
257.0000;2985.6490
258.0000;2991.4470
259.0000;2991.7840
260.0000;2985.1900
261.0000;2978.1150
262.0000;2973.7720
263.0000;2973.5520
264.0000;2979.0440
265.0000;2987.7460
266.0000;2993.0060
267.0000;2993.2670
268.0000;2991.1390
269.0000;2987.6500
270.0000;2984.7490
271.0000;2988.1030
272.0000;2991.6360
273.0000;2983.0330
274.0000;2964.0030
275.0000;2951.2290
276.0000;2956.3770
277.0000;2967.5730
278.0000;2967.8040
279.0000;2964.4290
280.0000;2967.7540
281.0000;2978.1310
282.0000;2989.5410
283.0000;2998.7710
284.0000;3001.2660
285.0000;2994.5650
286.0000;2981.8710
287.0000;2974.6880
288.0000;2976.2930
289.0000;2977.8050
290.0000;2973.5260
291.0000;2969.6260
292.0000;2971.6860
293.0000;2975.2480
294.0000;2967.4440
295.0000;2949.2860
296.0000;2943.8390
297.0000;2964.9520
298.0000;2995.4240
299.0000;3013.8550
300.0000;3020.1040
301.0000;3026.1070
302.0000;3030.0820
303.0000;3027.3570
304.0000;3015.8100
305.0000;3007.1070
306.0000;3015.5470
307.0000;3035.6540
308.0000;3052.5920
309.0000;3061.8200
310.0000;3070.3240
311.0000;3081.2530
312.0000;3090.0630
313.0000;3101.4120
314.0000;3107.7940
315.0000;3106.2190
316.0000;3095.3410
317.0000;3083.2140
318.0000;3075.5810
319.0000;3072.1260
320.0000;3068.8710
321.0000;3070.5540
322.0000;3078.7110
323.0000;3091.3260
324.0000;3097.6560
325.0000;3091.3780
326.0000;3079.2100
327.0000;3071.9010
328.0000;3064.2230
329.0000;3045.8150
330.0000;3022.3490
331.0000;3013.1390
332.0000;3026.8900
333.0000;3048.3330
334.0000;3059.1280
335.0000;3063.4950
336.0000;3068.4140
337.0000;3070.5860
338.0000;3069.5910
339.0000;3065.3830
340.0000;3058.8670
341.0000;3048.0390
342.0000;3044.2090
343.0000;3061.3530
344.0000;3091.0180
345.0000;3102.8170
346.0000;3084.9670
347.0000;3066.2030
348.0000;3069.7200
349.0000;3081.0550
350.0000;3085.4610
351.0000;3083.4250
352.0000;3074.0170
353.0000;3059.5430
354.0000;3056.1780
355.0000;3076.6940
356.0000;3101.8540
357.0000;3110.5390
358.0000;3106.4930
359.0000;3105.9150
360.0000;3109.4330
361.0000;3115.1660
362.0000;3123.2070
363.0000;3127.3350
364.0000;3121.1310
365.0000;3111.0480
366.0000;3109.3190
367.0000;3117.2940
368.0000;3129.1840
369.0000;3141.4340
370.0000;3150.6660
371.0000;3154.9590
372.0000;3151.5290
373.0000;3144.6330
374.0000;3133.8600
375.0000;3120.8920
376.0000;3109.2230
377.0000;3103.0630
378.0000;3106.3550
379.0000;3111.8080
380.0000;3105.1990
381.0000;3093.8360
382.0000;3089.4040
383.0000;3094.1980
384.0000;3098.4320
385.0000;3096.3780
386.0000;3094.9760
387.0000;3101.7320
388.0000;3108.8290
389.0000;3106.1490
390.0000;3095.3470
391.0000;3088.5010
392.0000;3091.2570
393.0000;3099.9530
394.0000;3112.8790
395.0000;3125.1020
396.0000;3132.3300
397.0000;3131.0900
398.0000;3124.5770
399.0000;3113.1820
400.0000;3096.0380
401.0000;3072.6820
402.0000;3062.2190
403.0000;3083.8890
404.0000;3117.2970
405.0000;3114.3260
406.0000;3079.0700
407.0000;3062.7090
408.0000;3084.8390
409.0000;3113.8560
410.0000;3125.3670
411.0000;3126.1240
412.0000;3124.5880
413.0000;3119.3810
414.0000;3118.8190
415.0000;3123.9820
416.0000;3125.7180
417.0000;3118.9600
418.0000;3111.8430
419.0000;3115.0280
420.0000;3120.1470
421.0000;3112.7980
422.0000;3095.5940
423.0000;3082.1130
424.0000;3078.6330
425.0000;3081.2200
426.0000;3086.5110
427.0000;3092.4880
428.0000;3092.9140
429.0000;3087.9360
430.0000;3082.2860
431.0000;3076.0040
432.0000;3062.8470
433.0000;3040.3160
434.0000;3025.4870
435.0000;3031.3970
436.0000;3048.4370
437.0000;3054.0330
438.0000;3048.9050
439.0000;3040.7090
440.0000;3031.9410
441.0000;3028.0380
442.0000;3034.4270
443.0000;3040.9040
444.0000;3034.5490
445.0000;3021.6250
446.0000;3010.3030
447.0000;3005.4000
448.0000;3012.6100
449.0000;3033.4050
450.0000;3049.9390
451.0000;3047.4310
452.0000;3035.9950
453.0000;3031.9220
454.0000;3031.5090
455.0000;3029.3740
456.0000;3026.3590
457.0000;3025.5000
458.0000;3028.0970
459.0000;3029.2690
460.0000;3019.4310
461.0000;3016.5870
462.0000;3045.5350
463.0000;3086.7800
464.0000;3095.6590
465.0000;3063.1700
466.0000;3037.6920
467.0000;3043.3800
468.0000;3059.2100
469.0000;3066.8610
470.0000;3073.0910
471.0000;3084.3890
472.0000;3094.2570
473.0000;3094.1900
474.0000;3082.1870
475.0000;3068.0880
476.0000;3058.7710
477.0000;3058.6670
478.0000;3073.0850
479.0000;3092.0730
480.0000;3098.5100
481.0000;3091.7810
482.0000;3084.4440
483.0000;3079.3550
484.0000;3077.9050
485.0000;3082.5170
486.0000;3085.6670
487.0000;3077.7610
488.0000;3065.9110
489.0000;3059.7120
490.0000;3060.2210
491.0000;3063.3520
492.0000;3067.9050
493.0000;3068.3570
494.0000;3060.8720
495.0000;3049.6670
496.0000;3037.7390
497.0000;3030.2430
498.0000;3032.7420
499.0000;3042.1710
500.0000;3042.8290
501.0000;3031.1470
502.0000;3014.4200
503.0000;2996.7130
504.0000;2991.1060
505.0000;3010.9700
506.0000;3039.5620
507.0000;3043.6530
508.0000;3028.8970
509.0000;3023.3440
510.0000;3031.5500
511.0000;3039.9680
512.0000;3042.2650
513.0000;3041.7700
514.0000;3043.2790
515.0000;3040.0800
516.0000;3023.5440
517.0000;3004.8670
518.0000;3009.0190
519.0000;3037.3150
520.0000;3061.9450
521.0000;3066.9770
522.0000;3062.4010
523.0000;3056.2430
524.0000;3049.9550
525.0000;3054.2340
526.0000;3063.5530
527.0000;3066.2680
528.0000;3060.5030
529.0000;3049.5000
530.0000;3035.5480
531.0000;3028.0150
532.0000;3033.4350
533.0000;3045.5960
534.0000;3054.1940
535.0000;3058.6140
536.0000;3058.4920
537.0000;3053.7390
538.0000;3052.0930
539.0000;3055.0530
540.0000;3054.2550
541.0000;3045.4030
542.0000;3034.0810
543.0000;3024.8600
544.0000;3018.2240
545.0000;3008.0890
546.0000;3002.1950
547.0000;3010.0940
548.0000;3030.2300
549.0000;3038.8180
550.0000;3024.5350
551.0000;3010.0330
552.0000;3014.3130
553.0000;3022.3480
554.0000;3016.6110
555.0000;3006.4950
556.0000;3005.1550
557.0000;3013.2130
558.0000;3024.6690
559.0000;3035.5810
560.0000;3034.1060
561.0000;3012.5730
562.0000;2988.2520
563.0000;2979.2880
564.0000;2979.9390
565.0000;2974.2820
566.0000;2968.6470
567.0000;2968.1990
568.0000;2973.8770
569.0000;2977.3410
570.0000;2975.2460
571.0000;2978.8140
572.0000;2996.9520
573.0000;3013.6970
574.0000;3015.2050
575.0000;3004.1380
576.0000;2992.2790
577.0000;2984.7750
578.0000;2995.2380
579.0000;3023.4950
580.0000;3035.7020
581.0000;3012.5540
582.0000;2984.6530
583.0000;2977.0840
584.0000;2983.5500
585.0000;2993.1890
586.0000;3007.0170
587.0000;3020.3850
588.0000;3028.0410
589.0000;3028.1970
590.0000;3019.4550
591.0000;3012.9450
592.0000;3015.6550
593.0000;3023.2280
594.0000;3032.5690
595.0000;3039.5200
596.0000;3038.8110
597.0000;3032.0780
598.0000;3029.8300
599.0000;3031.2420
600.0000;3026.1510
601.0000;3012.9460
602.0000;3005.9430
603.0000;3013.1170
604.0000;3022.8660
605.0000;3022.4950
606.0000;3016.4020
607.0000;3009.7470
608.0000;3003.3300
609.0000;3000.0370
610.0000;2999.9560
611.0000;2998.3390
612.0000;2992.8120
613.0000;2971.9840
614.0000;2927.1390
615.0000;2893.3520
616.0000;2896.5410
617.0000;2919.3390
618.0000;2921.8670
619.0000;2913.0820
620.0000;2908.4430
621.0000;2907.7160
622.0000;2904.3000
623.0000;2897.8290
624.0000;2896.1010
625.0000;2902.8560
626.0000;2910.3470
627.0000;2910.3950
628.0000;2907.8170
629.0000;2909.4130
630.0000;2912.3310
631.0000;2914.3080
632.0000;2913.8270
633.0000;2909.0670
634.0000;2900.9150
635.0000;2895.4800
636.0000;2896.6810
637.0000;2900.8300
638.0000;2905.0010
639.0000;2907.3280
640.0000;2904.9340
641.0000;2899.7810
642.0000;2894.1940
643.0000;2892.7310
644.0000;2903.3770
645.0000;2924.3720
646.0000;2938.4250
647.0000;2938.1730
648.0000;2939.1860
649.0000;2953.1460
650.0000;2963.2300
651.0000;2959.2630
652.0000;2946.3390
653.0000;2935.2000
654.0000;2927.5480
655.0000;2926.7710
656.0000;2931.9000
657.0000;2928.4990
658.0000;2914.7710
659.0000;2906.2360
660.0000;2910.5770
661.0000;2913.6820
662.0000;2903.8440
663.0000;2892.8310
664.0000;2892.7720
665.0000;2894.4690
666.0000;2879.9500
667.0000;2859.5200
668.0000;2851.5470
669.0000;2860.6200
670.0000;2877.5930
671.0000;2896.9170
672.0000;2900.8490
673.0000;2877.2400
674.0000;2860.2650
675.0000;2883.0010
676.0000;2912.5210
677.0000;2909.9090
678.0000;2891.7430
679.0000;2892.9210
680.0000;2903.7990
681.0000;2892.4490
682.0000;2863.4020
683.0000;2857.9850
684.0000;2888.7190
685.0000;2914.1690
686.0000;2909.1650
687.0000;2897.2780
688.0000;2901.5350
689.0000;2903.3430
690.0000;2887.6000
691.0000;2864.6820
692.0000;2847.5210
693.0000;2841.8820
694.0000;2843.0080
695.0000;2851.0720
696.0000;2855.5870
697.0000;2852.1570
698.0000;2847.7600
699.0000;2846.1850
700.0000;2839.8130
701.0000;2821.2400
702.0000;2808.7700
703.0000;2821.4030
704.0000;2843.5250
705.0000;2843.8040
706.0000;2831.2700
707.0000;2838.8670
708.0000;2860.3610
709.0000;2859.7830
710.0000;2830.3160
711.0000;2808.7330
712.0000;2814.2490
713.0000;2822.6660
714.0000;2815.7500
715.0000;2811.7690
716.0000;2825.0850
717.0000;2841.5740
718.0000;2848.2200
719.0000;2840.9180
720.0000;2815.8970
721.0000;2787.7970
722.0000;2796.0590
723.0000;2840.2850
724.0000;2859.5590
725.0000;2831.4170
726.0000;2802.7320
727.0000;2800.6030
728.0000;2810.5110
729.0000;2823.7090
730.0000;2835.5300
731.0000;2835.9540
732.0000;2827.5900
733.0000;2821.3080
734.0000;2814.6130
735.0000;2800.6810
736.0000;2785.6230
737.0000;2781.0910
738.0000;2790.4260
739.0000;2801.4810
740.0000;2808.0260
741.0000;2808.9260
742.0000;2802.4600
743.0000;2790.2120
744.0000;2772.2520
745.0000;2762.9900
746.0000;2780.7920
747.0000;2800.9330
748.0000;2777.1800
749.0000;2731.2480
750.0000;2713.0620
751.0000;2726.7890
752.0000;2745.6420
753.0000;2762.7350
754.0000;2771.4680
755.0000;2766.5470
756.0000;2757.0180
757.0000;2749.3120
758.0000;2748.0020
759.0000;2759.7320
760.0000;2769.3170
761.0000;2758.0990
762.0000;2741.8340
763.0000;2743.5930
764.0000;2756.2590
765.0000;2761.6730
766.0000;2760.7390
767.0000;2760.2900
768.0000;2762.0890
769.0000;2772.6830
770.0000;2790.7840
771.0000;2799.8320
772.0000;2792.0690
773.0000;2772.0270
774.0000;2743.7290
775.0000;2726.4160
776.0000;2734.3260
777.0000;2762.0340
778.0000;2794.7750
779.0000;2822.0490
780.0000;2832.1990
781.0000;2823.8230
782.0000;2821.3970
783.0000;2822.1250
784.0000;2820.6490
785.0000;2816.9840
786.0000;2812.5620
787.0000;2809.1330
788.0000;2812.7030
789.0000;2825.6180
790.0000;2832.6770
791.0000;2822.5680
792.0000;2810.8430
793.0000;2812.7290
794.0000;2815.7030
795.0000;2802.4970
796.0000;2790.4010
797.0000;2802.6330
798.0000;2823.9020
799.0000;2822.3910
800.0000;2800.1030
801.0000;2776.6170
802.0000;2759.3670
803.0000;2754.5350
804.0000;2764.0500
805.0000;2765.6030
806.0000;2750.0070
807.0000;2745.0770
808.0000;2764.6680
809.0000;2781.6320
810.0000;2773.7380
811.0000;2759.7700
812.0000;2760.4150
813.0000;2762.7880
814.0000;2752.2820
815.0000;2739.0810
816.0000;2737.9330
817.0000;2743.1680
818.0000;2734.3370
819.0000;2718.3250
820.0000;2715.3030
821.0000;2728.4230
822.0000;2744.0330
823.0000;2755.5550
824.0000;2761.1380
825.0000;2757.9050
826.0000;2749.3950
827.0000;2738.8810
828.0000;2734.8050
829.0000;2744.2930
830.0000;2756.5010
831.0000;2759.2660
832.0000;2758.3240
833.0000;2763.4930
834.0000;2767.0160
835.0000;2761.3520
836.0000;2752.5840
837.0000;2755.8750
838.0000;2766.1770
839.0000;2764.3120
840.0000;2752.3820
841.0000;2750.3990
842.0000;2760.4620
843.0000;2767.8230
844.0000;2767.0000
845.0000;2760.4330
846.0000;2749.5090
847.0000;2748.4060
848.0000;2766.4040
849.0000;2783.2670
850.0000;2782.1430
851.0000;2775.1040
852.0000;2773.1520
853.0000;2777.4780
854.0000;2794.3160
855.0000;2811.2190
856.0000;2811.1930
857.0000;2798.2530
858.0000;2789.8610
859.0000;2786.2880
860.0000;2787.2010
861.0000;2790.7960
862.0000;2785.1670
863.0000;2772.2550
864.0000;2766.2530
865.0000;2772.1280
866.0000;2780.8080
867.0000;2788.3280
868.0000;2795.2730
869.0000;2800.2310
870.0000;2808.3490
871.0000;2824.5210
872.0000;2832.1420
873.0000;2818.4900
874.0000;2807.0990
875.0000;2829.2990
876.0000;2848.6250
877.0000;2820.7710
878.0000;2782.0000
879.0000;2785.8560
880.0000;2811.6870
881.0000;2811.9410
882.0000;2796.6780
883.0000;2789.3570
884.0000;2793.2120
885.0000;2809.6940
886.0000;2831.6950
887.0000;2835.3520
888.0000;2815.6900
889.0000;2795.8830
890.0000;2784.4050
891.0000;2771.8760
892.0000;2758.4670
893.0000;2756.9360
894.0000;2771.2810
895.0000;2788.0030
896.0000;2796.5940
897.0000;2793.7960
898.0000;2775.5600
899.0000;2763.4740
900.0000;2781.3170
901.0000;2806.7400
902.0000;2816.5820
903.0000;2812.5420
904.0000;2802.3820
905.0000;2786.8330
906.0000;2771.6330
907.0000;2763.8670
908.0000;2766.0060
909.0000;2779.5530
910.0000;2796.9890
911.0000;2813.0740
912.0000;2822.9170
913.0000;2821.6090
914.0000;2815.1130
915.0000;2804.9820
916.0000;2796.8570
917.0000;2795.1420
918.0000;2805.5000
919.0000;2826.7120
920.0000;2838.5110
921.0000;2830.3160
922.0000;2816.7630
923.0000;2806.2050
924.0000;2807.2790
925.0000;2826.8550
926.0000;2839.6310
927.0000;2823.6070
928.0000;2804.1040
929.0000;2804.9650
930.0000;2813.5730
931.0000;2816.1620
932.0000;2818.6670
933.0000;2825.3250
934.0000;2830.2240
935.0000;2828.5250
936.0000;2822.8770
937.0000;2822.9860
938.0000;2822.8840
939.0000;2808.4990
940.0000;2793.0640
941.0000;2804.0670
942.0000;2832.9540
943.0000;2848.5110
944.0000;2846.3560
945.0000;2840.9600
946.0000;2835.1350
947.0000;2840.2040
948.0000;2853.8770
949.0000;2851.9730
950.0000;2830.7600
951.0000;2807.6540
952.0000;2792.6280
953.0000;2787.3280
954.0000;2794.0050
955.0000;2802.7020
956.0000;2806.7310
957.0000;2813.6680
958.0000;2825.5010
959.0000;2824.8310
960.0000;2802.6000
961.0000;2782.8040
962.0000;2784.0720
963.0000;2782.4080
964.0000;2755.3510
965.0000;2737.5600
966.0000;2754.3650
967.0000;2779.3800
968.0000;2778.3630
969.0000;2771.7870
970.0000;2784.7360
971.0000;2797.2310
972.0000;2792.4610
973.0000;2777.5490
974.0000;2764.3390
975.0000;2756.4290
976.0000;2756.4880
977.0000;2762.3770
978.0000;2759.2310
979.0000;2755.4530
980.0000;2768.5040
981.0000;2787.0540
982.0000;2784.7850
983.0000;2766.9710
984.0000;2761.9390
985.0000;2767.9390
986.0000;2765.6060
987.0000;2758.7100
988.0000;2766.6810
989.0000;2783.7520
990.0000;2775.9130
991.0000;2745.0490
992.0000;2735.2600
993.0000;2754.5270
994.0000;2765.0980
995.0000;2760.9660
996.0000;2764.5260
997.0000;2779.6000
998.0000;2798.5340
999.0000;2814.8010
1000.0000;2813.1220
1001.0000;2789.8540
1002.0000;2782.3000
1003.0000;2805.9240
1004.0000;2823.7490
1005.0000;2817.6510
1006.0000;2803.7270
1007.0000;2790.1820
1008.0000;2774.3880
1009.0000;2757.4790
1010.0000;2759.6610
1011.0000;2790.3440
1012.0000;2812.6970
1013.0000;2798.1220
1014.0000;2776.7270
1015.0000;2770.2710
1016.0000;2775.9730
1017.0000;2794.4160
1018.0000;2806.7200
1019.0000;2794.3020
1020.0000;2774.5200
1021.0000;2765.0860
1022.0000;2758.8760
1023.0000;2745.7640
1024.0000;2747.1280
1025.0000;2781.7980
1026.0000;2809.6080
1027.0000;2784.4190
1028.0000;2744.5130
1029.0000;2738.6510
1030.0000;2748.0000
1031.0000;2744.7240
1032.0000;2742.3230
1033.0000;2751.5790
1034.0000;2755.2910
1035.0000;2728.7000
1036.0000;2699.9120
1037.0000;2705.6440
1038.0000;2728.0630
1039.0000;2728.2320
1040.0000;2720.3390
1041.0000;2722.9540
1042.0000;2731.6990
1043.0000;2744.5540
1044.0000;2751.3240
1045.0000;2738.0710
1046.0000;2714.9840
1047.0000;2704.5390
1048.0000;2703.3750
1049.0000;2693.5450
1050.0000;2684.1210
1051.0000;2684.3870
1052.0000;2690.1900
1053.0000;2684.0340
1054.0000;2676.5030
1055.0000;2690.6670
1056.0000;2711.7670
1057.0000;2706.0250
1058.0000;2687.3980
1059.0000;2700.0350
1060.0000;2728.0280
1061.0000;2736.3370
1062.0000;2722.9140
1063.0000;2701.4730
1064.0000;2680.1930
1065.0000;2673.2600
1066.0000;2683.0440
1067.0000;2697.4080
1068.0000;2710.1010
1069.0000;2707.4200
1070.0000;2693.4930
1071.0000;2688.8210
1072.0000;2694.6810
1073.0000;2705.1190
1074.0000;2718.2560
1075.0000;2731.4990
1076.0000;2740.9960
1077.0000;2752.9710
1078.0000;2757.3710
1079.0000;2738.4060
1080.0000;2710.1140
1081.0000;2715.0710
1082.0000;2746.1450
1083.0000;2762.4690
1084.0000;2760.4230
1085.0000;2750.0720
1086.0000;2737.2790
1087.0000;2743.4860
1088.0000;2760.6550
1089.0000;2756.2460
1090.0000;2738.3690
1091.0000;2737.7320
1092.0000;2750.7780
1093.0000;2759.1470
1094.0000;2760.5630
1095.0000;2758.1310
1096.0000;2749.3640
1097.0000;2730.2300
1098.0000;2713.4860
1099.0000;2721.3320
1100.0000;2743.9050
1101.0000;2744.8220
1102.0000;2727.9690
1103.0000;2713.3390
1104.0000;2707.4160
1105.0000;2721.0890
1106.0000;2741.1240
1107.0000;2726.1550
1108.0000;2699.1250
1109.0000;2717.8310
1110.0000;2755.7130
1111.0000;2743.7110
1112.0000;2707.6210
1113.0000;2710.3480
1114.0000;2733.2290
1115.0000;2729.0800
1116.0000;2716.8180
1117.0000;2738.7840
1118.0000;2763.0660
1119.0000;2735.6990
1120.0000;2686.6550
1121.0000;2670.7460
1122.0000;2677.8420
1123.0000;2671.1190
1124.0000;2669.0130
1125.0000;2688.4220
1126.0000;2705.9210
1127.0000;2684.5520
1128.0000;2651.7360
1129.0000;2650.7210
1130.0000;2666.3330
1131.0000;2674.7190
1132.0000;2673.7930
1133.0000;2652.8890
1134.0000;2636.2880
1135.0000;2654.3050
1136.0000;2675.9390
1137.0000;2662.9300
1138.0000;2646.0210
1139.0000;2655.7760
1140.0000;2674.0430
1141.0000;2683.8200
1142.0000;2688.6430
1143.0000;2691.5950
1144.0000;2688.9440
1145.0000;2681.1410
1146.0000;2676.9190
1147.0000;2684.5880
1148.0000;2690.3380
1149.0000;2683.3390
1150.0000;2673.5280
1151.0000;2666.4690
1152.0000;2673.2350
1153.0000;2699.4780
1154.0000;2718.2450
1155.0000;2713.2780
1156.0000;2704.4440
1157.0000;2703.3290
1158.0000;2704.8270
1159.0000;2707.6420
1160.0000;2697.3450
1161.0000;2671.1680
1162.0000;2664.2160
1163.0000;2688.7630
1164.0000;2712.1060
1165.0000;2721.3850
1166.0000;2732.7880
1167.0000;2743.1580
1168.0000;2726.9690
1169.0000;2686.6160
1170.0000;2668.2450
1171.0000;2682.7360
1172.0000;2696.9160
1173.0000;2704.5870
1174.0000;2708.7750
1175.0000;2705.7020
1176.0000;2690.5170
1177.0000;2674.0380
1178.0000;2686.1570
1179.0000;2719.2190
1180.0000;2734.4880
1181.0000;2734.9430
1182.0000;2752.0650
1183.0000;2768.6000
1184.0000;2761.2070
1185.0000;2736.4100
1186.0000;2714.6630
1187.0000;2708.0300
1188.0000;2730.8600
1189.0000;2753.6080
1190.0000;2724.1250
1191.0000;2682.8590
1192.0000;2682.2380
1193.0000;2701.9810
1194.0000;2712.6420
1195.0000;2717.4320
1196.0000;2714.3330
1197.0000;2704.8780
1198.0000;2692.9390
1199.0000;2690.7200
1200.0000;2707.5380
1201.0000;2715.7960
1202.0000;2696.0680
1203.0000;2673.1830
1204.0000;2662.0240
1205.0000;2661.4590
1206.0000;2671.3970
1207.0000;2679.2980
1208.0000;2678.4380
1209.0000;2679.8490
1210.0000;2685.6170
1211.0000;2691.2960
1212.0000;2694.1040
1213.0000;2695.3810
1214.0000;2690.8280
1215.0000;2664.5580
1216.0000;2628.7200
1217.0000;2627.5830
1218.0000;2661.5760
1219.0000;2690.6390
1220.0000;2704.6770
1221.0000;2695.7660
1222.0000;2675.2400
1223.0000;2686.4240
1224.0000;2709.0910
1225.0000;2703.4080
1226.0000;2684.2870
1227.0000;2679.1940
1228.0000;2679.4720
1229.0000;2673.7900
1230.0000;2670.2070
1231.0000;2673.0680
1232.0000;2676.8230
1233.0000;2675.2730
1234.0000;2673.1460
1235.0000;2672.8990
1236.0000;2681.9520
1237.0000;2703.0790
1238.0000;2715.2370
1239.0000;2706.2330
1240.0000;2695.4300
1241.0000;2691.6030
1242.0000;2686.1040
1243.0000;2680.3550
1244.0000;2685.3510
1245.0000;2700.7960
1246.0000;2709.7120
1247.0000;2707.4800
1248.0000;2700.3780
1249.0000;2692.7570
1250.0000;2698.7990
1251.0000;2712.0320
1252.0000;2707.9170
1253.0000;2699.5260
1254.0000;2717.8840
1255.0000;2742.1460
1256.0000;2738.8530
1257.0000;2724.8990
1258.0000;2730.0890
1259.0000;2736.1660
1260.0000;2727.8550
1261.0000;2719.0860
1262.0000;2720.2840
1263.0000;2724.9330
1264.0000;2728.4160
1265.0000;2731.1460
1266.0000;2732.3790
1267.0000;2734.5530
1268.0000;2738.6660
1269.0000;2748.8970
1270.0000;2760.1540
1271.0000;2737.9400
1272.0000;2690.6820
1273.0000;2683.2760
1274.0000;2717.0460
1275.0000;2733.6430
1276.0000;2731.3540
1277.0000;2730.7820
1278.0000;2724.9700
1279.0000;2705.6270
1280.0000;2686.7330
1281.0000;2685.6480
1282.0000;2698.3830
1283.0000;2711.9200
1284.0000;2718.8120
1285.0000;2709.5090
1286.0000;2698.3980
1287.0000;2699.2780
1288.0000;2704.1520
1289.0000;2708.5220
1290.0000;2720.9460
1291.0000;2741.9610
1292.0000;2758.0750
1293.0000;2762.4240
1294.0000;2762.2700
1295.0000;2756.6290
1296.0000;2742.4890
1297.0000;2725.8520
1298.0000;2722.0170
1299.0000;2728.2560
1300.0000;2720.6750
1301.0000;2709.6970
1302.0000;2715.2000
1303.0000;2724.2970
1304.0000;2713.2050
1305.0000;2703.1680
1306.0000;2716.4470
1307.0000;2729.0510
1308.0000;2721.4170
1309.0000;2710.2740
1310.0000;2706.0310
1311.0000;2707.1750
1312.0000;2714.1370
1313.0000;2730.1240
1314.0000;2749.7650
1315.0000;2745.1590
1316.0000;2718.7610
1317.0000;2721.3920
1318.0000;2749.5360
1319.0000;2759.3890
1320.0000;2754.4590
1321.0000;2755.8940
1322.0000;2763.8500
1323.0000;2785.6640
1324.0000;2802.1700
1325.0000;2793.1460
1326.0000;2782.4750
1327.0000;2797.1030
1328.0000;2811.3200
1329.0000;2810.6510
1330.0000;2794.6840
1331.0000;2767.3770
1332.0000;2747.3090
1333.0000;2748.3960
1334.0000;2774.8700
1335.0000;2814.1460
1336.0000;2821.6790
1337.0000;2796.6950
1338.0000;2784.4200
1339.0000;2787.2620
1340.0000;2801.7050
1341.0000;2820.0000
1342.0000;2831.1560
1343.0000;2823.4520
1344.0000;2789.9350
1345.0000;2767.1640
1346.0000;2785.3290
1347.0000;2806.0760
1348.0000;2804.2530
1349.0000;2793.0070
1350.0000;2779.3300
1351.0000;2784.9080
1352.0000;2809.4580
1353.0000;2815.4660
1354.0000;2801.8030
1355.0000;2797.1750
1356.0000;2798.3920
1357.0000;2792.0230
1358.0000;2787.3330
1359.0000;2796.0830
1360.0000;2806.1110
1361.0000;2802.6080
1362.0000;2797.4150
1363.0000;2799.3510
1364.0000;2813.1300
1365.0000;2838.2840
1366.0000;2837.0370
1367.0000;2800.8200
1368.0000;2791.0910
1369.0000;2814.5460
1370.0000;2825.5840
1371.0000;2821.3060
1372.0000;2813.1810
1373.0000;2808.7760
1374.0000;2824.3100
1375.0000;2844.5300
1376.0000;2849.3870
1377.0000;2844.5060
1378.0000;2838.7080
1379.0000;2832.2840
1380.0000;2828.4470
1381.0000;2821.4850
1382.0000;2813.3950
1383.0000;2827.5290
1384.0000;2861.4380
1385.0000;2878.3960
1386.0000;2870.9220
1387.0000;2860.4680
1388.0000;2849.0260
1389.0000;2842.9710
1390.0000;2840.6840
1391.0000;2835.2620
1392.0000;2829.7820
1393.0000;2825.1510
1394.0000;2812.6790
1395.0000;2788.2470
1396.0000;2780.5090
1397.0000;2798.6380
1398.0000;2811.5040
1399.0000;2810.5050
1400.0000;2801.6550
1401.0000;2791.4290
1402.0000;2796.9720
1403.0000;2814.6700
1404.0000;2830.2210
1405.0000;2843.3090
1406.0000;2859.8250
1407.0000;2851.1400
1408.0000;2801.6760
1409.0000;2773.8050
1410.0000;2799.4800
1411.0000;2814.4790
1412.0000;2803.5390
1413.0000;2811.3110
1414.0000;2834.7120
1415.0000;2843.6470
1416.0000;2837.6190
1417.0000;2835.9820
1418.0000;2832.7130
1419.0000;2822.5760
1420.0000;2817.6250
1421.0000;2828.6960
1422.0000;2824.7000
1423.0000;2790.0430
1424.0000;2765.9640
1425.0000;2770.2280
1426.0000;2784.2540
1427.0000;2800.4250
1428.0000;2801.8470
1429.0000;2788.3400
1430.0000;2775.0410
1431.0000;2764.2220
1432.0000;2757.2000
1433.0000;2754.3960
1434.0000;2750.8940
1435.0000;2750.8290
1436.0000;2754.3610
1437.0000;2757.8770
1438.0000;2760.9420
1439.0000;2779.5040
1440.0000;2801.0740
1441.0000;2780.9290
1442.0000;2738.3020
1443.0000;2732.5250
1444.0000;2749.1560
1445.0000;2755.8190
1446.0000;2758.2230
1447.0000;2756.2570
1448.0000;2746.0260
1449.0000;2729.2680
1450.0000;2723.1790
1451.0000;2731.5290
1452.0000;2730.3920
1453.0000;2714.9750
1454.0000;2682.4340
1455.0000;2651.3780
1456.0000;2643.0590
1457.0000;2656.4580
1458.0000;2675.0450
1459.0000;2686.3170
1460.0000;2677.9700
1461.0000;2668.3010
1462.0000;2665.6790
1463.0000;2659.5550
1464.0000;2651.0900
1465.0000;2646.5290
1466.0000;2644.4420
1467.0000;2634.8070
1468.0000;2622.8180
1469.0000;2610.2180
1470.0000;2608.3540
1471.0000;2621.7590
1472.0000;2635.4910
1473.0000;2637.8960
1474.0000;2627.2540
1475.0000;2610.4870
1476.0000;2626.1260
1477.0000;2658.9210
1478.0000;2651.1140
1479.0000;2621.6240
1480.0000;2611.0270
1481.0000;2609.4040
1482.0000;2607.7440
1483.0000;2607.0990
1484.0000;2605.6450
1485.0000;2610.5620
1486.0000;2620.8690
1487.0000;2623.8550
1488.0000;2618.7900
1489.0000;2614.1690
1490.0000;2613.3840
1491.0000;2621.1580
1492.0000;2630.5850
1493.0000;2635.7850
1494.0000;2621.1300
1495.0000;2585.8500
1496.0000;2577.3170
1497.0000;2605.5390
1498.0000;2622.9300
1499.0000;2620.8350
1500.0000;2606.3260
1501.0000;2591.7190
1502.0000;2597.0380
1503.0000;2615.7490
1504.0000;2637.8150
1505.0000;2633.1590
1506.0000;2591.2700
1507.0000;2575.7930
1508.0000;2596.2410
1509.0000;2594.4530
1510.0000;2575.5440
1511.0000;2562.9140
1512.0000;2559.9440
1513.0000;2566.8450
1514.0000;2572.4830
1515.0000;2565.9280
1516.0000;2564.3090
1517.0000;2573.1160
1518.0000;2580.3210
1519.0000;2580.4490
1520.0000;2571.4320
1521.0000;2555.6230
1522.0000;2536.9250
1523.0000;2530.6230
1524.0000;2546.9840
1525.0000;2560.0740
1526.0000;2552.7980
1527.0000;2549.7710
1528.0000;2555.5970
1529.0000;2559.9760
1530.0000;2556.5560
1531.0000;2535.1530
1532.0000;2512.8890
1533.0000;2512.5110
1534.0000;2519.9970
1535.0000;2520.4230
1536.0000;2515.2170
1537.0000;2507.1080
1538.0000;2517.2990
1539.0000;2540.2050
1540.0000;2545.6920
1541.0000;2534.4570
1542.0000;2520.6630
1543.0000;2513.8530
1544.0000;2525.3310
1545.0000;2529.1030
1546.0000;2512.3760
1547.0000;2496.7780
1548.0000;2491.0340
1549.0000;2497.6680
1550.0000;2509.1420
1551.0000;2507.4150
1552.0000;2491.2500
1553.0000;2462.0100
1554.0000;2443.9330
1555.0000;2451.4220
1556.0000;2466.6360
1557.0000;2479.3630
1558.0000;2473.8680
1559.0000;2461.4270
1560.0000;2478.7140
1561.0000;2503.7460
1562.0000;2510.8460
1563.0000;2508.5910
1564.0000;2503.6780
1565.0000;2496.3850
1566.0000;2489.0820
1567.0000;2477.6560
1568.0000;2468.7090
1569.0000;2468.2030
1570.0000;2475.6870
1571.0000;2482.2620
1572.0000;2497.9530
1573.0000;2522.5030
1574.0000;2517.9500
1575.0000;2481.5810
1576.0000;2473.7120
1577.0000;2488.4040
1578.0000;2479.9370
1579.0000;2468.7780
1580.0000;2476.9540
1581.0000;2481.5390
1582.0000;2470.5520
1583.0000;2465.4510
1584.0000;2470.6200
1585.0000;2472.9790
1586.0000;2467.6280
1587.0000;2446.5390
1588.0000;2428.4310
1589.0000;2432.9910
1590.0000;2435.0170
1591.0000;2421.2300
1592.0000;2424.3870
1593.0000;2443.3890
1594.0000;2440.1730
1595.0000;2423.3330
1596.0000;2420.3860
1597.0000;2422.3110
1598.0000;2420.5420
1599.0000;2423.4900
1600.0000;2431.5710
1601.0000;2432.2560
1602.0000;2421.7930
1603.0000;2402.5720
1604.0000;2383.8490
1605.0000;2378.3500
1606.0000;2368.9090
1607.0000;2341.1930
1608.0000;2331.8620
1609.0000;2349.4220
1610.0000;2353.2400
1611.0000;2344.2790
1612.0000;2342.3140
1613.0000;2346.7950
1614.0000;2358.1320
1615.0000;2354.2690
1616.0000;2326.4390
1617.0000;2313.2920
1618.0000;2324.2570
1619.0000;2336.2690
1620.0000;2343.6670
1621.0000;2337.2010
1622.0000;2334.8960
1623.0000;2354.8000
1624.0000;2353.2120
1625.0000;2319.0030
1626.0000;2300.2760
1627.0000;2301.1660
1628.0000;2288.6810
1629.0000;2275.7650
1630.0000;2271.0090
1631.0000;2280.3310
1632.0000;2301.3200
1633.0000;2296.7250
1634.0000;2269.1890
1635.0000;2281.4560
1636.0000;2309.8590
1637.0000;2299.4070
1638.0000;2275.6400
1639.0000;2263.9880
1640.0000;2265.4490
1641.0000;2278.8170
1642.0000;2279.8500
1643.0000;2270.7840
1644.0000;2270.3060
1645.0000;2274.6720
1646.0000;2279.1930
1647.0000;2281.4930
1648.0000;2279.9850
1649.0000;2277.6400
1650.0000;2279.1840
1651.0000;2296.6460
1652.0000;2314.1760
1653.0000;2309.2500
1654.0000;2298.9240
1655.0000;2297.0470
1656.0000;2276.4240
1657.0000;2246.6240
1658.0000;2260.6480
1659.0000;2301.5940
1660.0000;2321.3990
1661.0000;2324.0220
1662.0000;2315.9390
1663.0000;2309.6430
1664.0000;2311.0010
1665.0000;2310.6380
1666.0000;2307.4210
1667.0000;2303.0960
1668.0000;2288.9460
1669.0000;2259.0900
1670.0000;2252.2930
1671.0000;2280.6130
1672.0000;2305.4190
1673.0000;2313.5560
1674.0000;2300.0880
1675.0000;2280.2910
1676.0000;2279.9290
1677.0000;2282.4370
1678.0000;2281.7820
1679.0000;2289.1220
1680.0000;2298.4200
1681.0000;2291.0020
1682.0000;2282.7130
1683.0000;2296.2350
1684.0000;2288.1630
1685.0000;2246.5020
1686.0000;2233.0390
1687.0000;2250.0450
1688.0000;2244.6570
1689.0000;2238.0330
1690.0000;2254.8710
1691.0000;2248.4820
1692.0000;2203.8750
1693.0000;2189.1290
1694.0000;2210.0540
1695.0000;2216.8330
1696.0000;2210.6560
1697.0000;2193.1400
1698.0000;2190.6840
1699.0000;2213.3550
1700.0000;2212.4660
1701.0000;2185.7670
1702.0000;2163.2060
1703.0000;2153.8270
1704.0000;2161.9790
1705.0000;2175.3670
1706.0000;2181.3560
1707.0000;2173.2800
1708.0000;2153.0140
1709.0000;2137.7150
1710.0000;2125.1950
1711.0000;2108.1210
1712.0000;2104.1000
1713.0000;2118.8200
1714.0000;2143.6260
1715.0000;2165.1980
1716.0000;2167.5690
1717.0000;2153.2840
1718.0000;2136.8420
1719.0000;2127.1020
1720.0000;2130.1890
1721.0000;2133.7200
1722.0000;2140.4780
1723.0000;2159.9000
1724.0000;2169.5920
1725.0000;2152.8110
1726.0000;2137.0570
1727.0000;2135.5030
1728.0000;2141.6170
1729.0000;2147.1710
1730.0000;2132.9000
1731.0000;2123.9000
1732.0000;2137.6380
1733.0000;2138.3160
1734.0000;2122.2030
1735.0000;2120.6250
1736.0000;2130.6370
1737.0000;2141.8290
1738.0000;2140.6140
1739.0000;2121.4820
1740.0000;2108.9290
1741.0000;2109.6770
1742.0000;2112.0360
1743.0000;2113.6340
1744.0000;2108.0760
1745.0000;2107.4430
1746.0000;2115.1370
1747.0000;2113.3660
1748.0000;2109.8250
1749.0000;2132.4410
1750.0000;2145.1360
1751.0000;2118.6430
1752.0000;2094.6780
1753.0000;2090.9980
1754.0000;2098.5180
1755.0000;2102.5610
1756.0000;2070.6170
1757.0000;2060.2250
1758.0000;2100.3840
1759.0000;2113.6920
1760.0000;2093.3500
1761.0000;2092.8350
1762.0000;2096.2060
1763.0000;2086.1190
1764.0000;2080.9580
1765.0000;2086.2840
1766.0000;2085.0680
1767.0000;2079.3330
1768.0000;2075.8680
1769.0000;2082.4880
1770.0000;2101.9870
1771.0000;2102.5900
1772.0000;2084.1030
1773.0000;2090.7640
1774.0000;2097.1850
1775.0000;2063.2280
1776.0000;2045.6080
1777.0000;2067.3900
1778.0000;2079.7740
1779.0000;2076.1270
1780.0000;2065.0470
1781.0000;2061.2480
1782.0000;2078.0930
1783.0000;2081.9360
1784.0000;2067.0790
1785.0000;2064.7620
1786.0000;2065.1370
1787.0000;2049.2780
1788.0000;2044.5740
1789.0000;2059.7070
1790.0000;2055.5920
1791.0000;2035.9270
1792.0000;2028.5900
1793.0000;2030.3190
1794.0000;2035.8050
1795.0000;2030.8220
1796.0000;2019.4790
1797.0000;2037.0350
1798.0000;2054.1470
1799.0000;2029.7510
1800.0000;2007.4670
1801.0000;2008.7380
1802.0000;2010.1110
1803.0000;2014.5400
1804.0000;2030.9830
1805.0000;2031.8520
1806.0000;2003.0850
1807.0000;2000.5850
1808.0000;2026.7680
1809.0000;2035.1770
1810.0000;2034.8900
1811.0000;2039.3710
1812.0000;2047.9790
1813.0000;2054.1790
1814.0000;2031.2740
1815.0000;1998.8630
1816.0000;1991.3520
1817.0000;1993.9240
1818.0000;1996.5000
1819.0000;2007.8150
1820.0000;2019.5920
1821.0000;2013.2710
1822.0000;2006.6280
1823.0000;2015.1860
1824.0000;1998.4390
1825.0000;1966.7330
1826.0000;1979.8860
1827.0000;2006.1610
1828.0000;2001.4190
1829.0000;1995.1700
1830.0000;1999.0050
1831.0000;2017.9450
1832.0000;2029.9640
1833.0000;2004.3410
1834.0000;1977.4950
1835.0000;1973.1460
1836.0000;1971.7630
1837.0000;1975.9690
1838.0000;1988.5200
1839.0000;1989.6680
1840.0000;1969.6840
1841.0000;1968.8710
1842.0000;1982.1940
1843.0000;1963.7160
1844.0000;1947.9540
1845.0000;1964.7160
1846.0000;1972.3530
1847.0000;1965.6230
1848.0000;1976.1690
1849.0000;1980.2780
1850.0000;1953.0140
1851.0000;1939.3340
1852.0000;1950.5330
1853.0000;1946.1530
1854.0000;1935.1110
1855.0000;1932.4660
1856.0000;1945.1500
1857.0000;1968.3810
1858.0000;1963.4960
1859.0000;1944.0420
1860.0000;1952.6940
1861.0000;1948.2300
1862.0000;1916.8150
1863.0000;1914.9880
1864.0000;1937.9810
1865.0000;1949.3030
1866.0000;1938.1300
1867.0000;1903.6290
1868.0000;1897.8260
1869.0000;1919.0820
1870.0000;1914.9080
1871.0000;1920.1990
1872.0000;1952.9650
1873.0000;1940.4230
1874.0000;1892.8070
1875.0000;1895.5050
1876.0000;1916.1070
1877.0000;1917.6490
1878.0000;1909.3880
1879.0000;1897.5080
1880.0000;1902.5430
1881.0000;1902.7660
1882.0000;1876.2420
1883.0000;1872.0350
1884.0000;1895.0930
1885.0000;1903.0520
1886.0000;1897.1780
1887.0000;1884.8240
1888.0000;1885.8290
1889.0000;1901.5390
1890.0000;1904.9870
1891.0000;1893.9840
1892.0000;1873.0210
1893.0000;1869.2660
1894.0000;1887.3920
1895.0000;1892.1390
1896.0000;1890.3900
1897.0000;1894.5310
1898.0000;1904.9620
1899.0000;1913.2090
1900.0000;1886.4620
1901.0000;1863.6010
1902.0000;1894.5910
1903.0000;1911.1050
1904.0000;1892.8060
1905.0000;1884.2770
1906.0000;1877.0410
1907.0000;1859.5890
1908.0000;1859.6070
1909.0000;1878.4840
1910.0000;1875.6170
1911.0000;1868.8810
1912.0000;1884.8190
1913.0000;1883.4830
1914.0000;1859.6210
1915.0000;1855.6600
1916.0000;1860.9190
1917.0000;1856.7230
1918.0000;1862.5620
1919.0000;1876.0690
1920.0000;1868.8690
1921.0000;1855.6770
1922.0000;1856.7860
1923.0000;1866.9750
1924.0000;1878.2240
1925.0000;1874.5190
1926.0000;1863.1140
1927.0000;1856.7730
1928.0000;1843.8020
1929.0000;1828.9120
1930.0000;1825.7830
1931.0000;1832.9260
1932.0000;1841.8530
1933.0000;1833.1220
1934.0000;1812.4170
1935.0000;1812.0020
1936.0000;1821.8690
1937.0000;1829.0710
1938.0000;1825.6220
1939.0000;1816.0000
1940.0000;1823.0040
1941.0000;1821.4440
1942.0000;1798.6560
1943.0000;1792.3340
1944.0000;1808.0570
1945.0000;1833.6620
1946.0000;1844.9710
1947.0000;1827.5090
1948.0000;1812.2350
1949.0000;1802.3280
1950.0000;1793.0980
1951.0000;1792.9990
1952.0000;1799.6660
1953.0000;1789.8950
1954.0000;1770.6610
1955.0000;1755.6200
1956.0000;1751.8700
1957.0000;1761.1850
1958.0000;1771.7790
1959.0000;1776.4120
1960.0000;1768.4210
1961.0000;1762.1420
1962.0000;1761.1410
1963.0000;1752.9020
1964.0000;1755.1470
1965.0000;1777.4270
1966.0000;1782.5030
1967.0000;1766.3330
1968.0000;1752.4690
1969.0000;1746.0680
1970.0000;1751.8650
1971.0000;1765.6450
1972.0000;1776.8160
1973.0000;1771.1980
1974.0000;1760.3800
1975.0000;1753.6520
1976.0000;1749.4640
1977.0000;1746.2730
1978.0000;1738.8090
1979.0000;1730.0820
1980.0000;1725.9560
1981.0000;1738.1540
1982.0000;1750.0850
1983.0000;1742.1960
1984.0000;1733.1840
1985.0000;1726.7870
1986.0000;1717.3550
1987.0000;1706.5130
1988.0000;1697.0830
1989.0000;1699.9100
1990.0000;1709.0110
1991.0000;1706.2810
1992.0000;1695.3670
1993.0000;1682.1610
1994.0000;1671.6060
1995.0000;1678.3580
1996.0000;1709.7490
1997.0000;1722.7850
1998.0000;1705.2840
1999.0000;1689.7630
2000.0000;1681.3910
2001.0000;1685.7780
2002.0000;1690.0390
2003.0000;1690.9900
2004.0000;1688.7470
2005.0000;1688.2940
2006.0000;1691.9900
2007.0000;1694.8250
2008.0000;1692.3320
2009.0000;1681.5550
2010.0000;1673.4800
2011.0000;1670.1850
2012.0000;1654.9860
2013.0000;1647.4770
2014.0000;1660.2640
2015.0000;1673.8730
2016.0000;1677.4720
2017.0000;1662.5630
2018.0000;1656.9360
2019.0000;1670.9230
2020.0000;1659.8850
2021.0000;1641.2470
2022.0000;1644.2880
2023.0000;1642.6730
2024.0000;1633.0220
2025.0000;1629.8010
2026.0000;1629.2840
2027.0000;1627.2450
2028.0000;1622.8500
2029.0000;1624.4500
2030.0000;1644.9340
2031.0000;1654.9150
2032.0000;1642.4050
2033.0000;1627.6130
2034.0000;1615.0330
2035.0000;1609.1330
2036.0000;1604.9480
2037.0000;1600.4990
2038.0000;1588.7030
2039.0000;1585.5750
2040.0000;1595.8150
2041.0000;1594.2080
2042.0000;1590.0010
2043.0000;1600.1190
2044.0000;1601.1610
2045.0000;1591.6070
2046.0000;1595.9590
2047.0000;1594.4390
2048.0000;1575.5500
2049.0000;1567.3400
2050.0000;1571.0240
2051.0000;1575.2260
2052.0000;1572.9010
2053.0000;1562.6060
2054.0000;1552.4960
2055.0000;1555.3760
2056.0000;1575.6640
2057.0000;1591.6750
2058.0000;1586.4590
2059.0000;1550.2490
2060.0000;1528.3340
2061.0000;1540.7370
2062.0000;1546.4780
2063.0000;1549.8970
2064.0000;1552.2870
2065.0000;1541.0460
2066.0000;1522.5490
2067.0000;1513.4600
2068.0000;1514.7050
2069.0000;1523.5300
2070.0000;1532.0130
2071.0000;1530.8550
2072.0000;1515.2340
2073.0000;1499.6870
2074.0000;1496.5110
2075.0000;1511.5460
2076.0000;1526.5590
2077.0000;1529.8260
2078.0000;1535.6080
2079.0000;1531.1720
2080.0000;1511.1580
2081.0000;1511.1390
2082.0000;1526.9900
2083.0000;1526.8620
2084.0000;1524.2560
2085.0000;1522.3140
2086.0000;1511.6610
2087.0000;1498.7620
2088.0000;1491.1460
2089.0000;1494.5090
2090.0000;1504.7930
2091.0000;1509.6600
2092.0000;1494.3730
2093.0000;1464.9270
2094.0000;1458.0460
2095.0000;1466.1940
2096.0000;1474.5430
2097.0000;1483.0330
2098.0000;1485.9950
2099.0000;1479.8510
2100.0000;1477.3230
2101.0000;1480.0180
2102.0000;1471.1520
2103.0000;1472.2350
2104.0000;1491.3010
2105.0000;1494.5720
2106.0000;1482.1850
2107.0000;1466.9040
2108.0000;1458.1210
2109.0000;1462.5950
2110.0000;1477.0560
2111.0000;1488.7250
2112.0000;1486.3740
2113.0000;1472.0510
2114.0000;1455.6480
2115.0000;1450.3030
2116.0000;1461.7060
2117.0000;1475.1430
2118.0000;1460.8180
2119.0000;1449.4360
2120.0000;1450.7190
2121.0000;1444.3510
2122.0000;1429.9350
2123.0000;1411.5720
2124.0000;1410.9310
2125.0000;1422.5620
2126.0000;1428.3300
2127.0000;1422.2220
2128.0000;1411.1990
2129.0000;1418.2120
2130.0000;1419.5570
2131.0000;1408.1060
2132.0000;1406.7740
2133.0000;1409.5920
2134.0000;1409.2950
2135.0000;1407.7670
2136.0000;1405.7930
2137.0000;1404.9060
2138.0000;1398.3430
2139.0000;1390.9720
2140.0000;1397.4580
2141.0000;1401.7320
2142.0000;1394.5430
2143.0000;1384.6240
2144.0000;1374.7050
2145.0000;1368.8760
2146.0000;1384.8610
2147.0000;1397.8130
2148.0000;1368.2670
2149.0000;1340.3360
2150.0000;1335.9960
2151.0000;1350.6290
2152.0000;1368.2940
2153.0000;1372.1820
2154.0000;1366.7620
2155.0000;1365.3810
2156.0000;1379.6410
2157.0000;1378.7400
2158.0000;1361.6580
2159.0000;1341.0810
2160.0000;1340.8660
2161.0000;1360.0420
2162.0000;1367.6100
2163.0000;1361.9000
2164.0000;1345.5800
2165.0000;1330.3010
2166.0000;1329.1320
2167.0000;1344.5950
2168.0000;1345.0030
2169.0000;1343.3730
2170.0000;1360.0120
2171.0000;1370.2040
2172.0000;1363.5610
2173.0000;1341.0360
2174.0000;1322.0400
2175.0000;1319.9270
2176.0000;1330.9400
2177.0000;1330.9250
2178.0000;1310.3880
2179.0000;1316.9790
2180.0000;1326.3140
2181.0000;1314.1610
2182.0000;1316.0340
2183.0000;1323.5800
2184.0000;1316.4530
2185.0000;1318.9400
2186.0000;1326.5050
2187.0000;1315.2400
2188.0000;1314.1940
2189.0000;1329.8620
2190.0000;1345.6530
2191.0000;1333.4110
2192.0000;1294.0000
2193.0000;1297.1340
2194.0000;1314.8620
2195.0000;1309.0220
2196.0000;1300.7610
2197.0000;1291.1460
2198.0000;1281.3220
2199.0000;1289.8570
2200.0000;1302.3640
2201.0000;1282.3090
2202.0000;1270.8780
2203.0000;1278.0210
2204.0000;1276.9690
2205.0000;1276.9220
2206.0000;1280.9090
2207.0000;1292.1900
2208.0000;1281.7930
2209.0000;1242.4650
2210.0000;1236.5730
2211.0000;1263.0680
2212.0000;1293.8670
2213.0000;1290.6830
2214.0000;1266.9020
2215.0000;1266.4560
2216.0000;1274.2450
2217.0000;1280.7580
2218.0000;1273.5520
2219.0000;1267.6790
2220.0000;1266.5760
2221.0000;1257.8590
2222.0000;1247.1900
2223.0000;1241.3350
2224.0000;1245.1820
2225.0000;1260.7480
2226.0000;1277.5220
2227.0000;1264.5990
2228.0000;1243.0860
2229.0000;1241.2950
2230.0000;1234.9390
2231.0000;1220.5780
2232.0000;1198.9320
2233.0000;1197.1430
2234.0000;1216.7010
2235.0000;1238.2710
2236.0000;1244.3130
2237.0000;1230.9700
2238.0000;1216.1280
2239.0000;1219.5680
2240.0000;1236.7190
2241.0000;1224.8420
2242.0000;1221.3050
2243.0000;1233.7080
2244.0000;1208.7510
2245.0000;1193.4830
2246.0000;1211.7110
2247.0000;1208.2260
2248.0000;1199.6400
2249.0000;1201.1130
2250.0000;1191.1880
2251.0000;1193.9950
2252.0000;1226.4570
2253.0000;1233.1150
2254.0000;1222.3700
2255.0000;1225.2130
2256.0000;1219.6240
2257.0000;1210.3920
2258.0000;1210.3360
2259.0000;1208.3070
2260.0000;1197.2640
2261.0000;1171.2350
2262.0000;1173.2320
2263.0000;1200.2090
2264.0000;1199.9790
2265.0000;1208.3130
2266.0000;1221.2300
2267.0000;1191.8280
2268.0000;1179.2350
2269.0000;1199.7030
2270.0000;1184.2200
2271.0000;1175.6670
2272.0000;1190.9170
2273.0000;1185.5800
2274.0000;1186.0550
2275.0000;1203.6780
2276.0000;1204.4810
2277.0000;1186.6050
2278.0000;1163.0760
2279.0000;1165.6270
2280.0000;1182.5090
2281.0000;1189.8230
2282.0000;1186.4460
2283.0000;1180.0320
2284.0000;1180.0650
2285.0000;1146.7700
2286.0000;1124.0880
2287.0000;1161.6510
2288.0000;1188.8730
2289.0000;1183.8320
2290.0000;1150.6400
2291.0000;1148.5520
2292.0000;1168.0800
2293.0000;1164.8000
2294.0000;1136.2940
2295.0000;1105.4360
2296.0000;1108.9890
2297.0000;1127.8710
2298.0000;1143.1920
2299.0000;1134.4580
2300.0000;1132.9270
2301.0000;1136.3870
2302.0000;1119.2490
2303.0000;1110.9410
2304.0000;1123.3190
2305.0000;1151.9410
2306.0000;1153.8010
2307.0000;1130.8820
2308.0000;1134.3670
2309.0000;1139.4340
2310.0000;1137.6410
2311.0000;1135.0330
2312.0000;1119.1220
2313.0000;1095.5120
2314.0000;1081.3700
2315.0000;1094.2470
2316.0000;1113.5360
2317.0000;1072.1280
2318.0000;1046.9040
2319.0000;1069.8780
2320.0000;1105.2990
2321.0000;1112.6590
2322.0000;1087.3750
2323.0000;1092.1350
2324.0000;1089.7770
2325.0000;1077.3460
2326.0000;1093.3730
2327.0000;1100.7420
2328.0000;1084.7050
2329.0000;1064.0680
2330.0000;1055.6640
2331.0000;1063.7230
2332.0000;1065.3980
2333.0000;1068.0830
2334.0000;1068.1950
2335.0000;1050.5920
2336.0000;1044.6580
2337.0000;1057.9810
2338.0000;1063.5790
2339.0000;1057.1310
2340.0000;1043.1440
2341.0000;1039.0160
2342.0000;1043.1710
2343.0000;1049.1390
2344.0000;1045.4220
2345.0000;1028.6190
2346.0000;1010.6520
2347.0000;1015.1690
2348.0000;1025.1910
2349.0000;1033.8100
2350.0000;1049.4350
2351.0000;1054.5500
2352.0000;1040.0370
2353.0000;1007.7300
2354.0000;1005.4280
2355.0000;1022.2760
2356.0000;987.4036
2357.0000;969.3703
2358.0000;978.1513
2359.0000;979.0192
2360.0000;987.0446
2361.0000;996.1889
2362.0000;992.9928
2363.0000;965.2738
2364.0000;942.0935
2365.0000;967.8076
2366.0000;958.8743
2367.0000;925.4750
2368.0000;917.6183
2369.0000;923.6855
2370.0000;933.1892
2371.0000;930.8655
2372.0000;938.0599
2373.0000;939.3535
2374.0000;918.6871
2375.0000;909.5229
2376.0000;912.9636
2377.0000;918.7278
2378.0000;918.6404
2379.0000;915.8401
2380.0000;915.1533
2381.0000;911.6996
2382.0000;913.6343
2383.0000;923.3978
2384.0000;923.6274
2385.0000;927.2383
2386.0000;936.9604
2387.0000;923.8224
2388.0000;917.0352
2389.0000;927.6667
2390.0000;926.2604
2391.0000;908.2142
2392.0000;888.5206
2393.0000;908.0361
2394.0000;913.3653
2395.0000;894.1898
2396.0000;888.6072
2397.0000;897.5645
2398.0000;912.1379
2399.0000;912.3995
2400.0000;905.2238
2401.0000;906.5428
2402.0000;932.2162
2403.0000;925.3574
2404.0000;908.5193
2405.0000;926.7036
2406.0000;942.7659
2407.0000;941.8145
2408.0000;924.9180
2409.0000;946.0469
2410.0000;957.3685
2411.0000;926.2983
2412.0000;927.1035
2413.0000;933.8013
2414.0000;926.4628
2415.0000;917.5027
2416.0000;914.0809
2417.0000;916.1821
2418.0000;909.1840
2419.0000;907.2057
2420.0000;912.4689
2421.0000;916.0439
2422.0000;924.1491
2423.0000;927.8066
2424.0000;915.0703
2425.0000;904.3702
2426.0000;895.4734
2427.0000;884.8401
2428.0000;918.7874
2429.0000;950.7821
2430.0000;930.7454
2431.0000;905.1636
2432.0000;889.8167
2433.0000;896.1586
2434.0000;908.8068
2435.0000;914.0464
2436.0000;903.6932
2437.0000;887.0671
2438.0000;884.9971
2439.0000;890.8110
2440.0000;867.8788
2441.0000;873.3733
2442.0000;894.8650
2443.0000;884.8925
2444.0000;880.2065
2445.0000;874.9048
2446.0000;860.9546
2447.0000;872.1019
2448.0000;883.7260
2449.0000;873.5432
2450.0000;871.9968
2451.0000;865.9836
2452.0000;857.3292
2453.0000;870.3438
2454.0000;889.3519
2455.0000;892.3743
2456.0000;862.6170
2457.0000;863.8748
2458.0000;873.5716
2459.0000;835.3171
2460.0000;849.2161
2461.0000;870.7700
2462.0000;843.0883
2463.0000;843.0803
2464.0000;856.4896
2465.0000;863.9572
2466.0000;863.0170
2467.0000;856.3039
2468.0000;850.7103
2469.0000;852.3386
2470.0000;852.1783
2471.0000;852.5253
2472.0000;860.8722
2473.0000;870.5301
2474.0000;864.6163
2475.0000;839.7027
2476.0000;853.0590
2477.0000;871.8585
2478.0000;863.5446
2479.0000;846.0773
2480.0000;836.7955
2481.0000;841.1516
2482.0000;840.0318
2483.0000;826.5788
2484.0000;806.5464
2485.0000;794.3186
2486.0000;807.6490
2487.0000;820.3018
2488.0000;807.8076
2489.0000;831.6428
2490.0000;841.1478
2491.0000;815.9164
2492.0000;815.1081
2493.0000;816.8987
2494.0000;819.6396
2495.0000;833.5473
2496.0000;826.5128
2497.0000;818.4453
2498.0000;838.0696
2499.0000;821.4925
2500.0000;807.3510
2501.0000;824.1704
2502.0000;823.0052
2503.0000;801.9993
2504.0000;785.6010
2505.0000;820.4220
2506.0000;815.0391
2507.0000;788.2338
2508.0000;804.4527
2509.0000;806.6337
2510.0000;791.3693
2511.0000;771.4579
2512.0000;772.7513
2513.0000;780.3917
2514.0000;784.5366
2515.0000;792.1874
2516.0000;781.9410
2517.0000;769.1896
2518.0000;781.7100
2519.0000;776.6846
2520.0000;768.8947
2521.0000;773.8702
2522.0000;775.5905
2523.0000;768.1966
2524.0000;762.8006
2525.0000;787.4159
2526.0000;788.2942
2527.0000;771.4451
2528.0000;768.7073
2529.0000;761.1520
2530.0000;759.4676
2531.0000;765.0000
2532.0000;755.4133
2533.0000;735.6882
2534.0000;725.1556
2535.0000;746.2741
2536.0000;743.9296
2537.0000;730.1259
2538.0000;735.3809
2539.0000;745.0472
2540.0000;755.9509
2541.0000;761.1877
2542.0000;755.5156
2543.0000;742.1350
2544.0000;740.2827
2545.0000;765.6829
2546.0000;768.4400
2547.0000;752.1577
2548.0000;737.4455
2549.0000;739.2780
2550.0000;731.4189
2551.0000;718.1995
2552.0000;733.7062
2553.0000;721.7248
2554.0000;705.8937
2555.0000;722.3000
2556.0000;718.7380
2557.0000;718.2319
2558.0000;728.9880
2559.0000;730.3931
2560.0000;726.5168
2561.0000;723.1488
2562.0000;724.2183
2563.0000;705.5691
2564.0000;692.0726
2565.0000;703.4531
2566.0000;727.6636
2567.0000;730.6690
2568.0000;717.3760
2569.0000;722.9273
2570.0000;733.2687
2571.0000;734.2783
2572.0000;722.0000
2573.0000;720.6577
2574.0000;731.5356
2575.0000;736.9048
2576.0000;711.3103
2577.0000;708.2121
2578.0000;706.4729
2579.0000;683.5179
2580.0000;671.5445
2581.0000;686.1575
2582.0000;709.6787
2583.0000;701.4347
2584.0000;688.7703
2585.0000;687.7887
2586.0000;702.9958
2587.0000;708.1400
2588.0000;702.0923
2589.0000;688.6696
2590.0000;677.4040
2591.0000;685.0018
2592.0000;695.3022
2593.0000;687.9538
2594.0000;677.4117
2595.0000;675.7163
2596.0000;681.2520
2597.0000;676.7853
2598.0000;683.9543
2599.0000;677.3029
2600.0000;646.2327
2601.0000;654.4619
2602.0000;657.8954
2603.0000;651.7837
2604.0000;666.4892
2605.0000;664.3456
2606.0000;651.8118
2607.0000;647.0441
2608.0000;661.8806
2609.0000;673.7678
2610.0000;666.9423
2611.0000;644.3181
2612.0000;636.3220
2613.0000;643.5455
2614.0000;655.7013
2615.0000;663.1199
2616.0000;662.2042
2617.0000;649.5621
2618.0000;632.2368
2619.0000;652.6758
2620.0000;658.8754
2621.0000;630.2627
2622.0000;619.1651
2623.0000;606.7557
2624.0000;605.4371
2625.0000;621.1982
2626.0000;620.2338
2627.0000;626.9353
2628.0000;637.6769
2629.0000;624.5566
2630.0000;623.7612
2631.0000;627.8807
2632.0000;619.6722
2633.0000;586.6589
2634.0000;587.4949
2635.0000;605.2936
2636.0000;586.4474
2637.0000;590.3717
2638.0000;600.7375
2639.0000;600.3983
2640.0000;589.9056
2641.0000;589.2631
2642.0000;593.9467
2643.0000;590.4636
2644.0000;573.8504
2645.0000;564.4012
2646.0000;570.2061
2647.0000;580.1259
2648.0000;562.1043
2649.0000;552.6138
2650.0000;567.0599
2651.0000;560.6959
2652.0000;555.9514
2653.0000;559.4000
2654.0000;568.1567
2655.0000;571.6658
2656.0000;564.1981
2657.0000;550.5956
2658.0000;542.5809
2659.0000;547.2559
2660.0000;541.0089
2661.0000;523.6764
2662.0000;539.8473
2663.0000;549.5812
2664.0000;542.0952
2665.0000;529.3585
2666.0000;546.1229
2667.0000;545.1093
2668.0000;529.1736
2669.0000;533.7146
2670.0000;494.8269
2671.0000;487.7423
2672.0000;525.0375
2673.0000;518.6768
2674.0000;508.5623
2675.0000;504.1410
2676.0000;505.9240
2677.0000;501.6510
2678.0000;497.6282
2679.0000;503.1729
2680.0000;517.2527
2681.0000;499.2488
2682.0000;485.0851
2683.0000;492.9663
2684.0000;507.9634
2685.0000;487.0261
2686.0000;466.3218
2687.0000;469.6996
2688.0000;469.7780
2689.0000;484.3662
2690.0000;477.9343
2691.0000;443.4729
2692.0000;465.0847
2693.0000;464.9637
2694.0000;449.9739
2695.0000;458.7194
2696.0000;467.4489
2697.0000;457.5139
2698.0000;435.2501
2699.0000;427.9977
2700.0000;439.3576
2701.0000;441.8268
2702.0000;433.1960
2703.0000;446.2787
2704.0000;446.0800
2705.0000;437.6981
2706.0000;430.5735
2707.0000;422.1625
2708.0000;418.2103
2709.0000;427.5526
2710.0000;444.2418
2711.0000;439.3071
2712.0000;418.7859
2713.0000;406.3816
2714.0000;415.6667
2715.0000;400.7866
2716.0000;413.7432
2717.0000;436.1563
2718.0000;420.7130
2719.0000;403.9106
2720.0000;417.5177
2721.0000;442.6451
2722.0000;428.3111
2723.0000;426.3684
2724.0000;417.8464
2725.0000;406.5905
2726.0000;420.1256
2727.0000;420.8042
2728.0000;432.9735
2729.0000;451.4208
2730.0000;427.3031
2731.0000;430.6076
2732.0000;434.5675
2733.0000;423.5683
2734.0000;440.0826
2735.0000;425.5617
2736.0000;402.2943
2737.0000;407.3299
2738.0000;438.5907
2739.0000;445.7433
2740.0000;430.4898
2741.0000;419.0896
2742.0000;420.6364
2743.0000;430.5349
2744.0000;434.8384
2745.0000;427.9450
2746.0000;433.7131
2747.0000;444.0705
2748.0000;450.7155
2749.0000;448.6838
2750.0000;447.0935
2751.0000;423.9773
2752.0000;411.6149
2753.0000;436.4211
2754.0000;421.6469
2755.0000;416.4102
2756.0000;416.0248
2757.0000;401.6667
2758.0000;417.7213
2759.0000;409.0064
2760.0000;398.1899
2761.0000;427.0000
2762.0000;430.7734
2763.0000;425.1074
2764.0000;420.9673
2765.0000;421.3333
2766.0000;409.7552
2767.0000;415.7067
2768.0000;425.2991
2769.0000;416.3333
2770.0000;434.8724
2771.0000;448.6644
2772.0000;444.9480
2773.0000;431.8034
2774.0000;420.8963
2775.0000;419.8259
2776.0000;418.6773
2777.0000;409.2776
2778.0000;418.0258
2779.0000;426.8565
2780.0000;421.9738
2781.0000;410.2476
2782.0000;431.4569
2783.0000;427.5782
2784.0000;421.2967
2785.0000;439.8839
2786.0000;426.8192
2787.0000;434.8979
2788.0000;440.5497
2789.0000;425.2136
2790.0000;440.8827
2791.0000;415.3676
2792.0000;400.3512
2793.0000;426.7025
2794.0000;419.6878
2795.0000;416.5109
2796.0000;410.9019
2797.0000;404.1927
2798.0000;413.5468
2799.0000;409.5695
2800.0000;396.3750
2801.0000;381.8968
2802.0000;370.1478
2803.0000;386.1935
2804.0000;399.7225
2805.0000;396.2946
2806.0000;392.6582
2807.0000;397.7135
2808.0000;413.0848
2809.0000;409.6034
2810.0000;371.8717
2811.0000;395.7370
2812.0000;400.5250
2813.0000;386.7519
2814.0000;392.3743
2815.0000;387.9225
2816.0000;377.1946
2817.0000;372.6685
2818.0000;374.3534
2819.0000;353.2723
2820.0000;360.2827
2821.0000;366.0198
2822.0000;360.3663
2823.0000;386.5692
2824.0000;355.3489
2825.0000;342.3050
2826.0000;369.2124
2827.0000;367.8516
2828.0000;342.9868
2829.0000;361.9366
2830.0000;384.8521
2831.0000;341.4849
2832.0000;362.2596
2833.0000;356.9170
2834.0000;339.5491
2835.0000;343.7210
2836.0000;315.7411
2837.0000;339.0258
2838.0000;352.5884
2839.0000;321.6955
2840.0000;322.9958
2841.0000;340.1846
2842.0000;349.9619
2843.0000;340.2758
2844.0000;324.4203
2845.0000;320.1603
2846.0000;333.2796
2847.0000;341.1708
2848.0000;325.1245
2849.0000;317.1265
2850.0000;308.5445
2851.0000;324.6678
2852.0000;352.7318
2853.0000;323.7466
2854.0000;323.7507
2855.0000;316.7350
2856.0000;295.6472
2857.0000;299.7657
2858.0000;321.7045
2859.0000;320.6578
2860.0000;310.6001
2861.0000;318.6676
2862.0000;302.7532
2863.0000;295.7776
2864.0000;295.0860
2865.0000;293.4814
2866.0000;296.5782
2867.0000;307.8262
2868.0000;314.7219
2869.0000;317.0223
2870.0000;320.8956
2871.0000;302.0498
2872.0000;307.0041
2873.0000;328.8401
2874.0000;336.7424
2875.0000;322.3760
2876.0000;309.8881
2877.0000;303.6475
2878.0000;308.7172
2879.0000;323.5620
2880.0000;310.2409
2881.0000;303.0525
2882.0000;303.3076
2883.0000;305.0251
2884.0000;331.3266
2885.0000;317.4325
2886.0000;309.7036
2887.0000;318.7528
2888.0000;298.5234
2889.0000;315.9583
2890.0000;319.3009
2891.0000;301.1951
2892.0000;291.5642
2893.0000;310.0579
2894.0000;315.4848
2895.0000;315.1678
2896.0000;320.4836
2897.0000;327.0838
2898.0000;311.6518
2899.0000;293.8175
2900.0000;291.6712
2901.0000;302.2443
2902.0000;299.9060
2903.0000;305.1227
2904.0000;299.1592
2905.0000;288.5798
2906.0000;295.5971
2907.0000;285.8631
2908.0000;294.3531
2909.0000;300.9582
2910.0000;288.7959
2911.0000;284.5799
2912.0000;278.9738
2913.0000;289.6296
2914.0000;298.3254
2915.0000;280.2111
2916.0000;267.7235
2917.0000;277.9321
2918.0000;290.7561
2919.0000;287.3382
2920.0000;275.9053
2921.0000;272.7117
2922.0000;262.6636
2923.0000;250.3808
2924.0000;253.8805
2925.0000;280.3301
2926.0000;249.3756
2927.0000;243.9279
2928.0000;266.9868
2929.0000;261.8391
2930.0000;268.6260
2931.0000;273.7892
2932.0000;273.5572
2933.0000;274.5367
2934.0000;284.0000
2935.0000;281.5309
2936.0000;262.0419
2937.0000;243.3899
2938.0000;244.7249
2939.0000;259.1105
2940.0000;240.8608
2941.0000;253.7347
2942.0000;264.2048
2943.0000;235.0979
2944.0000;251.4812
2945.0000;241.8511
2946.0000;229.6740
2947.0000;231.3474
2948.0000;238.9322
2949.0000;243.8256
2950.0000;241.7814
2951.0000;239.4641
2952.0000;244.2016
2953.0000;251.9725
2954.0000;241.0752
2955.0000;250.6552
2956.0000;250.2137
2957.0000;230.0131
2958.0000;231.9651
2959.0000;228.7554
2960.0000;231.5132
2961.0000;224.9478
2962.0000;206.6974
2963.0000;204.3849
2964.0000;219.3047
2965.0000;220.2044
2966.0000;212.2073
2967.0000;214.6243
2968.0000;221.7566
2969.0000;220.0208
2970.0000;219.6625
2971.0000;214.4294
2972.0000;205.4820
2973.0000;219.1548
2974.0000;225.7340
2975.0000;220.1489
2976.0000;213.4157
2977.0000;215.5231
2978.0000;216.1002
2979.0000;212.5017
2980.0000;215.9605
2981.0000;219.4667
2982.0000;214.6973
2983.0000;217.4859
2984.0000;206.6140
2985.0000;209.7329
2986.0000;220.5008
2987.0000;215.3139
2988.0000;203.3165
2989.0000;203.0396
2990.0000;207.7733
2991.0000;209.5970
2992.0000;204.7370
2993.0000;195.6142
2994.0000;210.3364
2995.0000;214.0060
2996.0000;209.7045
2997.0000;214.0784
2998.0000;212.5456
2999.0000;221.5016
3000.0000;224.3712
3001.0000;209.7048
3002.0000;197.3623
3003.0000;220.4173
3004.0000;191.8093
3005.0000;200.9696
3006.0000;206.7271
3007.0000;186.8768
3008.0000;211.0000
3009.0000;188.9386
3010.0000;189.8887
3011.0000;197.7031
3012.0000;198.2831
3013.0000;210.0721
3014.0000;197.4998
3015.0000;194.2439
3016.0000;187.6681
3017.0000;176.6923
3018.0000;180.3981
3019.0000;195.7125
3020.0000;187.9415
3021.0000;185.5573
3022.0000;181.5119
3023.0000;161.1900
3024.0000;166.1462
3025.0000;176.2109
3026.0000;184.1050
3027.0000;180.5831
3028.0000;171.4836
3029.0000;175.9227
3030.0000;182.4488
3031.0000;161.7889
3032.0000;158.1951
3033.0000;183.6450
3034.0000;181.0618
3035.0000;154.9169
3036.0000;163.0853
3037.0000;174.5273
3038.0000;172.3805
3039.0000;167.7207
3040.0000;150.2992
3041.0000;150.4254
3042.0000;146.9331
3043.0000;148.7434
3044.0000;159.2434
3045.0000;149.0000
3046.0000;144.3224
3047.0000;147.8086
3048.0000;139.5128
3049.0000;136.3485
3050.0000;160.6399
3051.0000;139.3070
3052.0000;140.0004
3053.0000;153.0787
3054.0000;151.6176
3055.0000;134.7137
3056.0000;137.2078
3057.0000;152.8978
3058.0000;145.0798
3059.0000;138.1872
3060.0000;136.2965
3061.0000;118.7266
3062.0000;135.5637
3063.0000;141.2580
3064.0000;130.8668
3065.0000;122.1408
3066.0000;124.5999
3067.0000;124.5398
3068.0000;151.3996
3069.0000;133.6336
3070.0000;109.0861
3071.0000;118.4201
3072.0000;140.1530
3073.0000;131.1675
3074.0000;117.9451
3075.0000;106.7951
3076.0000;113.9259
3077.0000;124.2733
3078.0000;107.0172
3079.0000;114.7472
3080.0000;101.9049
3081.0000;106.6389
3082.0000;125.5420
3083.0000;123.5777
3084.0000;107.3333
3085.0000;94.6274
3086.0000;92.8498
3087.0000;107.4501
3088.0000;121.4622
3089.0000;118.9129
3090.0000;120.6653
3091.0000;117.8848
3092.0000;121.8975
3093.0000;104.5607
3094.0000;81.7706
3095.0000;105.3923
3096.0000;132.4633
3097.0000;112.4453
3098.0000;84.1646
3099.0000;84.7382
3100.0000;102.6937
3101.0000;102.2975
3102.0000;104.8284
3103.0000;97.8557
3104.0000;102.1064
3105.0000;103.3369
3106.0000;91.5787
3107.0000;93.5928
3108.0000;99.2406
3109.0000;91.3278
3110.0000;90.1966
3111.0000;96.3676
3112.0000;99.3055
3113.0000;103.9104
3114.0000;104.7238
3115.0000;94.6159
3116.0000;88.1390
3117.0000;92.2534
3118.0000;103.5599
3119.0000;116.3880
3120.0000;113.5416
3121.0000;118.2476
3122.0000;111.0765
3123.0000;105.1379
3124.0000;108.2780
3125.0000;91.6055
3126.0000;83.1460
3127.0000;97.4178
3128.0000;106.3300
3129.0000;103.0850
3130.0000;100.3461
3131.0000;102.4028
3132.0000;105.8866
3133.0000;95.9401
3134.0000;93.7650
3135.0000;91.7043
3136.0000;90.5549
3137.0000;105.7175
3138.0000;103.0864
3139.0000;100.3707
3140.0000;96.3237
3141.0000;100.6661
3142.0000;102.4396
3143.0000;87.9401
3144.0000;91.6247
3145.0000;118.2193
3146.0000;120.7463
3147.0000;104.6083
3148.0000;100.1140
3149.0000;114.7923
3150.0000;119.7103
3151.0000;102.9507
3152.0000;115.6271
3153.0000;98.1133
3154.0000;81.8484
3155.0000;96.1118
3156.0000;87.2769
3157.0000;101.8256
3158.0000;113.9504
3159.0000;118.6686
3160.0000;107.1139
3161.0000;88.6491
3162.0000;85.2762
3163.0000;97.4360
3164.0000;97.2554
3165.0000;91.3373
3166.0000;89.8010
3167.0000;86.7261
3168.0000;84.7891
3169.0000;97.5633
3170.0000;93.4317
3171.0000;102.5781
3172.0000;104.6789
3173.0000;93.5111
3174.0000;91.7802
3175.0000;100.9743
3176.0000;81.9625
3177.0000;100.6908
3178.0000;88.5468
3179.0000;95.1490
3180.0000;109.7419
3181.0000;102.0227
3182.0000;90.5030
3183.0000;94.8802
3184.0000;108.1550
3185.0000;100.3414
3186.0000;77.5015
3187.0000;74.4826
3188.0000;92.6472
3189.0000;91.7399
3190.0000;88.2515
3191.0000;98.7367
3192.0000;98.2429
3193.0000;99.6194
3194.0000;97.1381
3195.0000;86.6873
3196.0000;93.2304
3197.0000;72.8197
3198.0000;103.3203
3199.0000;105.6176
3200.0000;90.3430
3201.0000;84.4039
3202.0000;85.5133
3203.0000;95.5614
3204.0000;95.7683
3205.0000;97.0788
3206.0000;100.2786
3207.0000;104.6522
3208.0000;100.8342
3209.0000;87.7293
3210.0000;86.1965
3211.0000;98.2866
3212.0000;89.6498
3213.0000;90.1334
3214.0000;95.1368
3215.0000;95.9220
3216.0000;93.5669
3217.0000;87.2203
3218.0000;86.7736
3219.0000;77.7141
3220.0000;96.7725
3221.0000;101.2997
3222.0000;88.2276
3223.0000;88.1428
3224.0000;92.6976
3225.0000;98.8890
3226.0000;113.3386
3227.0000;113.4310
3228.0000;105.2134
3229.0000;91.9879
3230.0000;84.4384
3231.0000;93.2427
3232.0000;97.8044
3233.0000;95.7416
3234.0000;93.4527
3235.0000;85.0713
3236.0000;86.0289
3237.0000;90.4497
3238.0000;84.9245
3239.0000;90.8998
3240.0000;108.2794
3241.0000;86.9766
3242.0000;76.5381
3243.0000;72.2999
3244.0000;68.5053
3245.0000;79.1064
3246.0000;93.4416
3247.0000;71.4356
3248.0000;88.0848
3249.0000;81.4481
3250.0000;91.5715
3251.0000;83.6215
3252.0000;65.7201
3253.0000;72.2265
3254.0000;77.3813
3255.0000;82.0560
3256.0000;82.3663
3257.0000;73.0647
3258.0000;68.3504
3259.0000;75.0641
3260.0000;80.0795
3261.0000;67.0809
3262.0000;53.6265
3263.0000;82.8274
3264.0000;66.1328
3265.0000;56.1565
3266.0000;65.7766
3267.0000;69.2278
3268.0000;57.2905
3269.0000;51.9271
3270.0000;56.4222
3271.0000;44.6919
3272.0000;59.0349
3273.0000;70.1276
3274.0000;63.5160
3275.0000;57.3109
3276.0000;58.4602
3277.0000;56.0025
3278.0000;52.6952
3279.0000;46.6319
3280.0000;50.0174
3281.0000;53.0040
3282.0000;52.0560
3283.0000;41.8053
3284.0000;36.6522
3285.0000;46.0398
3286.0000;47.9926
3287.0000;32.5040
3288.0000;19.1908
3289.0000;37.4371
3290.0000;41.1483
3291.0000;39.7703
3292.0000;52.1905
3293.0000;57.7711
3294.0000;39.2157
3295.0000;35.2747
3296.0000;64.2930
3297.0000;23.6775
3298.0000;36.2805
3299.0000;45.9813
3300.0000;36.0127
3301.0000;36.9434
3302.0000;43.0700
3303.0000;33.3549
3304.0000;40.9812
3305.0000;35.3077
3306.0000;49.5583
3307.0000;38.7908
3308.0000;41.3426
3309.0000;55.3365
3310.0000;47.2511
3311.0000;37.0961
3312.0000;52.1036
3313.0000;28.8044
3314.0000;49.1661
3315.0000;47.0765
3316.0000;22.4116
3317.0000;29.9660
3318.0000;40.6852
3319.0000;25.9104
3320.0000;26.2176
3321.0000;46.4131
3322.0000;36.9006
3323.0000;33.8280
3324.0000;29.6942
3325.0000;10.2119
3326.0000;25.6864
3327.0000;46.8340
3328.0000;37.4918
3329.0000;29.3755
3330.0000;42.9002
3331.0000;47.5463
3332.0000;39.1229
3333.0000;42.6045
3334.0000;38.4890
3335.0000;37.6083
3336.0000;26.9914
3337.0000;30.0087
3338.0000;33.7687
3339.0000;12.9830
3340.0000;35.1930
3341.0000;36.5415
3342.0000;6.1237
3343.0000;29.4454
3344.0000;30.7010
3345.0000;20.5989
3346.0000;33.9793
3347.0000;41.1431
3348.0000;21.9975
3349.0000;25.2043
3350.0000;49.2151
3351.0000;27.1302
3352.0000;37.5163
3353.0000;40.6480
3354.0000;23.6516
3355.0000;28.1339
3356.0000;24.1294
3357.0000;22.0292
3358.0000;32.8017
3359.0000;10.6151
3360.0000;22.5101
3361.0000;41.5276
3362.0000;26.8596
3363.0000;31.4896
3364.0000;22.9626
3365.0000;22.4215
3366.0000;30.0225
3367.0000;24.1692
3368.0000;22.9262
3369.0000;38.8161
3370.0000;33.3299
3371.0000;39.1145
3372.0000;26.9475
3373.0000;19.0176
3374.0000;22.7998
3375.0000;44.5078
3376.0000;36.9367
3377.0000;30.2743
3378.0000;37.2103
3379.0000;32.7246
3380.0000;30.0218
3381.0000;19.6668
3382.0000;41.5023
3383.0000;29.6891
3384.0000;32.9423
3385.0000;39.3750
3386.0000;32.1792
