Raman Shift ; Dark Subtracted #1
-2.0000;13636.9600
-1.0000;12636.9900
0.0000;11233.9100
1.0000;9486.8490
2.0000;7477.4330
3.0000;5450.3210
4.0000;3749.7310
5.0000;2316.6230
6.0000;1346.7950
7.0000;1001.0710
8.0000;765.9608
9.0000;645.0410
10.0000;741.6256
11.0000;724.5426
12.0000;466.1903
13.0000;196.6584
14.0000;3.2384
15.0000;-52.0408
16.0000;-5.3883
17.0000;39.8016
18.0000;35.8881
19.0000;33.7443
20.0000;33.3055
21.0000;34.7096
22.0000;37.9170
23.0000;41.3919
24.0000;44.9212
25.0000;46.8376
26.0000;45.6752
27.0000;39.0567
28.0000;30.3123
29.0000;24.3287
30.0000;25.4899
31.0000;30.8128
32.0000;35.2306
33.0000;33.2979
34.0000;29.3845
35.0000;27.3461
36.0000;31.7103
37.0000;38.4816
38.0000;43.9050
39.0000;43.4595
40.0000;39.2230
41.0000;35.1542
42.0000;35.7783
43.0000;38.6135
44.0000;40.9100
45.0000;39.5948
46.0000;36.2630
47.0000;33.2379
48.0000;32.5208
49.0000;33.7853
50.0000;35.8813
51.0000;37.1631
52.0000;38.4366
53.0000;40.4908
54.0000;43.8087
55.0000;48.1119
56.0000;53.4339
57.0000;59.5948
58.0000;66.1611
59.0000;74.1993
60.0000;83.0688
61.0000;93.1788
62.0000;109.1960
63.0000;137.7332
64.0000;173.2777
65.0000;212.1120
66.0000;249.7584
67.0000;282.5345
68.0000;321.9860
69.0000;384.5604
70.0000;459.9605
71.0000;542.3379
72.0000;639.6974
73.0000;733.8171
74.0000;818.3709
75.0000;906.0014
76.0000;971.9431
77.0000;1032.1430
78.0000;1124.5790
79.0000;1228.7870
80.0000;1326.8910
81.0000;1422.3990
82.0000;1495.4690
83.0000;1562.7130
84.0000;1660.9330
85.0000;1773.2490
86.0000;1884.0800
87.0000;2003.4980
88.0000;2109.8730
89.0000;2210.0360
90.0000;2333.8030
91.0000;2461.5570
92.0000;2579.6770
93.0000;2706.2680
94.0000;2818.2330
95.0000;2925.4680
96.0000;3069.1920
97.0000;3231.0480
98.0000;3381.3880
99.0000;3531.5980
100.0000;3656.5140
101.0000;3751.0880
102.0000;3868.2740
103.0000;3988.7300
104.0000;4097.2590
105.0000;4212.0450
106.0000;4316.4970
107.0000;4411.0630
108.0000;4540.2420
109.0000;4681.2870
110.0000;4811.1040
111.0000;4941.9580
112.0000;5053.9900
113.0000;5139.7460
114.0000;5243.8130
115.0000;5351.9170
116.0000;5451.8600
117.0000;5566.2990
118.0000;5682.9110
119.0000;5783.3140
120.0000;5877.0930
121.0000;5949.2710
122.0000;6005.2420
123.0000;6079.0860
124.0000;6164.1720
125.0000;6256.6700
126.0000;6375.0540
127.0000;6510.0500
128.0000;6643.6880
129.0000;6776.6420
130.0000;6890.9910
131.0000;6987.3570
132.0000;7100.0190
133.0000;7216.7260
134.0000;7319.3500
135.0000;7427.7680
136.0000;7528.0930
137.0000;7599.6140
138.0000;7659.6040
139.0000;7696.1800
140.0000;7696.0840
141.0000;7688.4160
142.0000;7668.7430
143.0000;7620.3840
144.0000;7535.6380
145.0000;7422.7510
146.0000;7308.2960
147.0000;7207.0790
148.0000;7146.4250
149.0000;7119.0170
150.0000;7095.0920
151.0000;7082.8530
152.0000;7087.4470
153.0000;7090.0560
154.0000;7092.0620
155.0000;7095.7290
156.0000;7095.9320
157.0000;7092.1940
158.0000;7087.4530
159.0000;7083.2220
160.0000;7080.2350
161.0000;7080.9860
162.0000;7087.6710
163.0000;7100.2360
164.0000;7114.4570
165.0000;7123.2660
166.0000;7125.5290
167.0000;7128.7950
168.0000;7144.1880
169.0000;7169.0870
170.0000;7194.4260
171.0000;7210.8110
172.0000;7215.4510
173.0000;7217.3810
174.0000;7231.6950
175.0000;7254.9930
176.0000;7276.5200
177.0000;7291.3040
178.0000;7295.4500
179.0000;7297.6060
180.0000;7309.0440
181.0000;7327.2620
182.0000;7346.9710
183.0000;7368.2620
184.0000;7387.1520
185.0000;7404.9030
186.0000;7428.4170
187.0000;7450.8530
188.0000;7472.6730
189.0000;7499.1650
190.0000;7521.8960
191.0000;7539.8620
192.0000;7556.1270
193.0000;7564.0420
194.0000;7568.0380
195.0000;7575.5870
196.0000;7582.6030
197.0000;7589.9740
198.0000;7602.1390
199.0000;7615.3450
200.0000;7626.0770
201.0000;7631.8090
202.0000;7632.4430
203.0000;7634.7700
204.0000;7649.4600
205.0000;7669.0020
206.0000;7683.5520
207.0000;7684.3070
208.0000;7674.1390
209.0000;7665.3970
210.0000;7671.2720
211.0000;7684.6230
212.0000;7699.2280
213.0000;7707.8480
214.0000;7712.6970
215.0000;7718.5000
216.0000;7728.7130
217.0000;7741.0710
218.0000;7757.0590
219.0000;7781.0980
220.0000;7806.5290
221.0000;7831.1880
222.0000;7853.8050
223.0000;7871.3530
224.0000;7888.9730
225.0000;7912.9490
226.0000;7932.5800
227.0000;7949.7630
228.0000;7963.0500
229.0000;7971.6560
230.0000;7985.7720
231.0000;8012.0470
232.0000;8038.9020
233.0000;8059.0680
234.0000;8066.0830
235.0000;8065.4330
236.0000;8071.4120
237.0000;8091.2540
238.0000;8114.3720
239.0000;8136.4610
240.0000;8153.8830
241.0000;8165.6700
242.0000;8176.4990
243.0000;8186.4330
244.0000;8192.8940
245.0000;8200.4860
246.0000;8208.7880
247.0000;8216.9570
248.0000;8228.7670
249.0000;8243.3440
250.0000;8256.2760
251.0000;8267.2530
252.0000;8273.2440
253.0000;8277.6270
254.0000;8287.4330
255.0000;8301.4210
256.0000;8316.3290
257.0000;8332.4980
258.0000;8346.8930
259.0000;8359.0560
260.0000;8371.4610
261.0000;8380.7060
262.0000;8389.9820
263.0000;8405.3600
264.0000;8422.9880
265.0000;8440.3580
266.0000;8459.2960
267.0000;8474.7900
268.0000;8486.9060
269.0000;8497.6730
270.0000;8504.2870
271.0000;8513.3320
272.0000;8533.1870
273.0000;8558.1010
274.0000;8585.2790
275.0000;8615.9080
276.0000;8643.0030
277.0000;8667.5000
278.0000;8697.2010
279.0000;8718.8520
280.0000;8734.2100
281.0000;8745.1390
282.0000;8748.5440
283.0000;8756.1990
284.0000;8779.0050
285.0000;8804.3740
286.0000;8825.7130
287.0000;8836.1440
288.0000;8841.1740
289.0000;8854.9420
290.0000;8887.4430
291.0000;8920.7550
292.0000;8946.3330
293.0000;8956.2220
294.0000;8958.2670
295.0000;8969.3120
296.0000;8993.1560
297.0000;9019.3630
298.0000;9045.8550
299.0000;9068.5890
300.0000;9083.9550
301.0000;9095.7970
302.0000;9099.6220
303.0000;9097.5260
304.0000;9096.3080
305.0000;9095.4310
306.0000;9098.0940
307.0000;9111.1640
308.0000;9133.4250
309.0000;9153.7050
310.0000;9163.1050
311.0000;9161.2180
312.0000;9159.7450
313.0000;9173.2540
314.0000;9196.1510
315.0000;9218.2610
316.0000;9232.6570
317.0000;9240.0460
318.0000;9249.4830
319.0000;9272.8140
320.0000;9299.6540
321.0000;9326.9900
322.0000;9352.7390
323.0000;9374.1240
324.0000;9399.7800
325.0000;9437.3420
326.0000;9472.3690
327.0000;9501.6000
328.0000;9521.1780
329.0000;9530.6670
330.0000;9546.4370
331.0000;9574.9770
332.0000;9606.5030
333.0000;9638.9790
334.0000;9669.6720
335.0000;9696.2080
336.0000;9729.1600
337.0000;9764.4640
338.0000;9789.0380
339.0000;9800.0260
340.0000;9790.6870
341.0000;9773.7750
342.0000;9770.1220
343.0000;9780.4100
344.0000;9793.1570
345.0000;9800.0540
346.0000;9800.8530
347.0000;9800.0610
348.0000;9802.8510
349.0000;9807.2930
350.0000;9811.4620
351.0000;9816.2780
352.0000;9819.4060
353.0000;9818.8740
354.0000;9812.6040
355.0000;9802.4520
356.0000;9794.7690
357.0000;9794.6700
358.0000;9799.1350
359.0000;9802.1940
360.0000;9797.5750
361.0000;9792.1870
362.0000;9791.3130
363.0000;9797.7850
364.0000;9809.9020
365.0000;9826.2060
366.0000;9844.8760
367.0000;9861.9260
368.0000;9872.7490
369.0000;9874.0370
370.0000;9872.0020
371.0000;9877.4970
372.0000;9891.7510
373.0000;9910.1070
374.0000;9934.8420
375.0000;9960.5720
376.0000;9980.7720
377.0000;9989.1710
378.0000;9983.3750
379.0000;9976.8920
380.0000;9987.0930
381.0000;10006.8400
382.0000;10026.9000
383.0000;10040.1500
384.0000;10046.1900
385.0000;10052.2000
386.0000;10066.1300
387.0000;10080.6300
388.0000;10096.5800
389.0000;10114.4300
390.0000;10129.6900
391.0000;10141.9300
392.0000;10150.8700
393.0000;10155.5800
394.0000;10162.9600
395.0000;10173.6800
396.0000;10187.9000
397.0000;10209.6200
398.0000;10239.8800
399.0000;10268.5700
400.0000;10290.6900
401.0000;10301.7400
402.0000;10306.2100
403.0000;10317.2900
404.0000;10330.7500
405.0000;10342.0100
406.0000;10351.6400
407.0000;10357.0400
408.0000;10363.3100
409.0000;10375.6900
410.0000;10391.0800
411.0000;10411.2500
412.0000;10441.4900
413.0000;10472.0900
414.0000;10494.9100
415.0000;10503.8100
416.0000;10501.2600
417.0000;10503.8500
418.0000;10522.6500
419.0000;10544.6300
420.0000;10561.5900
421.0000;10567.8700
422.0000;10568.2000
423.0000;10571.5400
424.0000;10578.6800
425.0000;10588.9100
426.0000;10604.9100
427.0000;10625.2000
428.0000;10645.9300
429.0000;10669.8300
430.0000;10690.6900
431.0000;10704.7100
432.0000;10712.3700
433.0000;10710.7400
434.0000;10711.2400
435.0000;10726.6300
436.0000;10750.5800
437.0000;10776.7300
438.0000;10802.8000
439.0000;10823.3700
440.0000;10842.0800
441.0000;10861.0500
442.0000;10872.8900
443.0000;10882.0300
444.0000;10889.7700
445.0000;10893.5600
446.0000;10898.8900
447.0000;10905.9700
448.0000;10914.9400
449.0000;10930.4100
450.0000;10951.0200
451.0000;10972.6500
452.0000;10995.4900
453.0000;11014.4900
454.0000;11028.2300
455.0000;11039.7000
456.0000;11045.0400
457.0000;11052.2800
458.0000;11073.7900
459.0000;11099.7000
460.0000;11122.4400
461.0000;11141.9800
462.0000;11151.5400
463.0000;11155.4300
464.0000;11154.7400
465.0000;11150.5000
466.0000;11152.7200
467.0000;11165.4100
468.0000;11183.8700
469.0000;11205.3800
470.0000;11228.8100
471.0000;11248.2600
472.0000;11261.6300
473.0000;11264.8400
474.0000;11265.3000
475.0000;11274.6500
476.0000;11289.7500
477.0000;11308.0000
478.0000;11330.1000
479.0000;11351.8000
480.0000;11372.4000
481.0000;11397.1600
482.0000;11415.4600
483.0000;11427.6000
484.0000;11431.9700
485.0000;11430.6400
486.0000;11436.4800
487.0000;11454.3300
488.0000;11479.6200
489.0000;11512.9600
490.0000;11551.7000
491.0000;11586.3700
492.0000;11612.8900
493.0000;11624.3700
494.0000;11631.6800
495.0000;11654.9100
496.0000;11685.8600
497.0000;11716.0500
498.0000;11743.7000
499.0000;11762.8200
500.0000;11779.4000
501.0000;11803.6400
502.0000;11824.5400
503.0000;11846.2400
504.0000;11874.2000
505.0000;11895.8600
506.0000;11910.3400
507.0000;11915.1000
508.0000;11909.3200
509.0000;11902.5200
510.0000;11895.6700
511.0000;11891.3800
512.0000;11896.4300
513.0000;11910.8600
514.0000;11924.4000
515.0000;11928.1000
516.0000;11921.1400
517.0000;11908.7700
518.0000;11895.7100
519.0000;11883.4400
520.0000;11876.1600
521.0000;11876.4700
522.0000;11884.2000
523.0000;11892.1800
524.0000;11894.0700
525.0000;11897.9800
526.0000;11911.7700
527.0000;11938.1600
528.0000;11965.5300
529.0000;11984.9500
530.0000;11989.9900
531.0000;11989.7900
532.0000;11996.7000
533.0000;12007.7700
534.0000;12022.3600
535.0000;12042.0700
536.0000;12063.0900
537.0000;12083.5000
538.0000;12106.1400
539.0000;12122.7100
540.0000;12136.6300
541.0000;12147.3200
542.0000;12156.4100
543.0000;12175.4300
544.0000;12208.1600
545.0000;12242.5400
546.0000;12275.1100
547.0000;12297.3500
548.0000;12309.0900
549.0000;12316.8100
550.0000;12315.4800
551.0000;12313.1800
552.0000;12324.1200
553.0000;12341.2400
554.0000;12354.5000
555.0000;12354.3200
556.0000;12348.2500
557.0000;12351.8800
558.0000;12376.5500
559.0000;12409.2000
560.0000;12436.0300
561.0000;12450.8600
562.0000;12455.4900
563.0000;12458.5400
564.0000;12458.4400
565.0000;12454.5600
566.0000;12451.0000
567.0000;12447.7600
568.0000;12447.5200
569.0000;12453.7000
570.0000;12464.5900
571.0000;12474.0200
572.0000;12478.1300
573.0000;12477.7300
574.0000;12476.6200
575.0000;12475.1900
576.0000;12476.7300
577.0000;12487.8400
578.0000;12510.2400
579.0000;12533.8600
580.0000;12547.0900
581.0000;12546.7700
582.0000;12542.6800
583.0000;12549.1000
584.0000;12561.7400
585.0000;12573.3000
586.0000;12579.8400
587.0000;12581.5000
588.0000;12584.0800
589.0000;12592.0800
590.0000;12601.3800
591.0000;12610.2500
592.0000;12617.4100
593.0000;12623.7800
594.0000;12635.5100
595.0000;12651.4400
596.0000;12663.3200
597.0000;12663.9600
598.0000;12652.2100
599.0000;12640.2800
600.0000;12637.1000
601.0000;12644.0000
602.0000;12661.5500
603.0000;12691.2900
604.0000;12725.7700
605.0000;12757.9000
606.0000;12778.9500
607.0000;12791.6600
608.0000;12808.4600
609.0000;12831.2100
610.0000;12849.7500
611.0000;12863.6800
612.0000;12869.6300
613.0000;12872.9100
614.0000;12884.1500
615.0000;12898.6700
616.0000;12914.0500
617.0000;12931.4800
618.0000;12947.5700
619.0000;12965.2800
620.0000;12988.0300
621.0000;13008.1500
622.0000;13029.5000
623.0000;13050.0800
624.0000;13061.8000
625.0000;13064.4800
626.0000;13054.8400
627.0000;13045.6300
628.0000;13050.9400
629.0000;13069.7300
630.0000;13095.0500
631.0000;13126.2800
632.0000;13156.6600
633.0000;13182.3400
634.0000;13200.8200
635.0000;13208.6700
636.0000;13214.1000
637.0000;13217.5700
638.0000;13219.8600
639.0000;13229.2800
640.0000;13245.2800
641.0000;13263.0800
642.0000;13283.0000
643.0000;13300.5900
644.0000;13315.7100
645.0000;13331.4600
646.0000;13342.7300
647.0000;13353.7200
648.0000;13368.2200
649.0000;13379.5700
650.0000;13388.9800
651.0000;13395.5600
652.0000;13398.4000
653.0000;13402.4000
654.0000;13406.1200
655.0000;13408.3300
656.0000;13410.8500
657.0000;13411.9200
658.0000;13411.3000
659.0000;13408.5000
660.0000;13404.9900
661.0000;13404.0300
662.0000;13407.5500
663.0000;13413.9100
664.0000;13421.1900
665.0000;13428.3800
666.0000;13432.7000
667.0000;13431.1200
668.0000;13423.7900
669.0000;13417.9400
670.0000;13422.5900
671.0000;13434.5400
672.0000;13445.7100
673.0000;13448.8300
674.0000;13448.1100
675.0000;13450.7100
676.0000;13460.4700
677.0000;13470.4700
678.0000;13475.8900
679.0000;13474.5300
680.0000;13471.2600
681.0000;13472.1700
682.0000;13476.3700
683.0000;13481.4000
684.0000;13482.0200
685.0000;13483.7000
686.0000;13495.0800
687.0000;13524.0200
688.0000;13558.2500
689.0000;13586.9400
690.0000;13602.8300
691.0000;13606.9400
692.0000;13606.9000
693.0000;13600.8800
694.0000;13597.8000
695.0000;13611.2200
696.0000;13636.0600
697.0000;13661.2600
698.0000;13679.2900
699.0000;13689.8200
700.0000;13700.0100
701.0000;13712.3300
702.0000;13722.8200
703.0000;13734.9700
704.0000;13746.6500
705.0000;13761.6700
706.0000;13790.0800
707.0000;13824.3400
708.0000;13852.6100
709.0000;13865.3900
710.0000;13865.3300
711.0000;13873.9500
712.0000;13906.9000
713.0000;13946.1700
714.0000;13982.7900
715.0000;14006.8800
716.0000;14022.0000
717.0000;14040.5200
718.0000;14055.9800
719.0000;14067.5000
720.0000;14081.1500
721.0000;14091.2700
722.0000;14102.2100
723.0000;14119.0700
724.0000;14133.5000
725.0000;14143.0800
726.0000;14144.1100
727.0000;14144.1500
728.0000;14158.2800
729.0000;14184.7300
730.0000;14208.6300
731.0000;14219.1600
732.0000;14215.2400
733.0000;14208.6800
734.0000;14209.5400
735.0000;14214.2300
736.0000;14225.2700
737.0000;14244.9300
738.0000;14264.9700
739.0000;14280.5200
740.0000;14287.3900
741.0000;14288.1500
742.0000;14287.8600
743.0000;14285.4100
744.0000;14286.8000
745.0000;14298.6100
746.0000;14316.0300
747.0000;14335.2800
748.0000;14354.6700
749.0000;14368.7500
750.0000;14380.1000
751.0000;14385.2700
752.0000;14379.6900
753.0000;14360.2600
754.0000;14331.8800
755.0000;14314.1000
756.0000;14327.5400
757.0000;14359.2200
758.0000;14383.5400
759.0000;14382.0800
760.0000;14372.3000
761.0000;14374.2900
762.0000;14390.9100
763.0000;14408.4000
764.0000;14415.7000
765.0000;14412.8900
766.0000;14411.1000
767.0000;14424.0000
768.0000;14440.0500
769.0000;14450.3000
770.0000;14448.3500
771.0000;14438.2800
772.0000;14426.4200
773.0000;14414.5000
774.0000;14411.2400
775.0000;14427.5600
776.0000;14460.5300
777.0000;14489.2000
778.0000;14498.5300
779.0000;14493.3300
780.0000;14489.3600
781.0000;14493.4800
782.0000;14502.2700
783.0000;14518.8200
784.0000;14541.3200
785.0000;14565.5900
786.0000;14590.5900
787.0000;14609.6400
788.0000;14618.5700
789.0000;14618.5700
790.0000;14607.6800
791.0000;14597.7800
792.0000;14594.8100
793.0000;14596.0100
794.0000;14597.9400
795.0000;14602.0500
796.0000;14614.5900
797.0000;14643.0700
798.0000;14680.8900
799.0000;14715.2000
800.0000;14740.7800
801.0000;14753.9700
802.0000;14767.7800
803.0000;14782.8400
804.0000;14795.7500
805.0000;14814.1700
806.0000;14832.9000
807.0000;14847.2500
808.0000;14857.0200
809.0000;14858.2200
810.0000;14856.9200
811.0000;14856.8900
812.0000;14857.3800
813.0000;14862.3800
814.0000;14873.1000
815.0000;14887.2400
816.0000;14905.0600
817.0000;14923.1800
818.0000;14935.1100
819.0000;14933.0800
820.0000;14924.7800
821.0000;14932.0600
822.0000;14967.8700
823.0000;15011.6600
824.0000;15043.8100
825.0000;15054.5900
826.0000;15049.2700
827.0000;15036.2900
828.0000;15015.3200
829.0000;14999.8000
830.0000;15003.6600
831.0000;15020.0400
832.0000;15035.2800
833.0000;15044.5200
834.0000;15049.5200
835.0000;15052.3900
836.0000;15051.4600
837.0000;15049.0800
838.0000;15048.9000
839.0000;15050.1100
840.0000;15052.9200
841.0000;15057.1500
842.0000;15063.5100
843.0000;15073.3500
844.0000;15085.6200
845.0000;15096.9000
846.0000;15105.3900
847.0000;15108.3000
848.0000;15107.8900
849.0000;15105.3500
850.0000;15102.7200
851.0000;15107.5900
852.0000;15123.7900
853.0000;15144.1200
854.0000;15162.1400
855.0000;15174.0100
856.0000;15182.7000
857.0000;15192.1200
858.0000;15199.1900
859.0000;15209.9000
860.0000;15230.0300
861.0000;15249.4800
862.0000;15263.3500
863.0000;15267.3100
864.0000;15265.8900
865.0000;15267.3300
866.0000;15269.9300
867.0000;15275.6100
868.0000;15285.3000
869.0000;15299.5300
870.0000;15320.7900
871.0000;15349.2400
872.0000;15376.2500
873.0000;15398.2200
874.0000;15409.4600
875.0000;15415.8200
876.0000;15425.8100
877.0000;15435.7800
878.0000;15452.9600
879.0000;15483.4900
880.0000;15514.6700
881.0000;15538.8400
882.0000;15549.5900
883.0000;15556.3900
884.0000;15578.9500
885.0000;15605.4700
886.0000;15623.7000
887.0000;15623.0300
888.0000;15613.6400
889.0000;15618.5500
890.0000;15645.1600
891.0000;15683.3700
892.0000;15724.5900
893.0000;15763.3300
894.0000;15797.8000
895.0000;15834.5600
896.0000;15859.4500
897.0000;15881.1400
898.0000;15899.5700
899.0000;15913.5300
900.0000;15940.2300
901.0000;15973.3300
902.0000;15996.2200
903.0000;15996.1000
904.0000;15978.8100
905.0000;15976.3300
906.0000;16007.6700
907.0000;16051.0200
908.0000;16086.6400
909.0000;16106.3100
910.0000;16121.0800
911.0000;16148.9200
912.0000;16178.4100
913.0000;16204.2900
914.0000;16227.9900
915.0000;16241.7600
916.0000;16252.1600
917.0000;16257.2400
918.0000;16259.0100
919.0000;16267.8800
920.0000;16279.5500
921.0000;16290.4300
922.0000;16299.2500
923.0000;16304.9100
924.0000;16310.7400
925.0000;16316.6200
926.0000;16325.2600
927.0000;16344.7200
928.0000;16371.0700
929.0000;16391.7000
930.0000;16403.9100
931.0000;16402.3900
932.0000;16391.8200
933.0000;16371.8300
934.0000;16359.2700
935.0000;16377.9900
936.0000;16426.2100
937.0000;16475.5600
938.0000;16500.3600
939.0000;16506.7900
940.0000;16519.6400
941.0000;16551.5200
942.0000;16581.1000
943.0000;16594.8600
944.0000;16589.5400
945.0000;16585.9600
946.0000;16613.0300
947.0000;16651.0400
948.0000;16678.7100
949.0000;16679.4300
950.0000;16668.2300
951.0000;16667.3100
952.0000;16678.8700
953.0000;16699.9300
954.0000;16737.1000
955.0000;16776.5200
956.0000;16804.4900
957.0000;16809.1400
958.0000;16796.4200
959.0000;16785.2800
960.0000;16778.2900
961.0000;16774.2300
962.0000;16773.1600
963.0000;16778.5200
964.0000;16791.1700
965.0000;16808.8900
966.0000;16834.0000
967.0000;16868.5900
968.0000;16909.8500
969.0000;16941.8700
970.0000;16952.6200
971.0000;16947.2000
972.0000;16962.7600
973.0000;17024.5800
974.0000;17099.3400
975.0000;17164.5400
976.0000;17200.9700
977.0000;17216.9800
978.0000;17230.7700
979.0000;17231.1400
980.0000;17235.4900
981.0000;17257.3700
982.0000;17282.5000
983.0000;17301.2400
984.0000;17309.9700
985.0000;17319.9200
986.0000;17349.8900
987.0000;17386.1300
988.0000;17418.7400
989.0000;17438.0900
990.0000;17447.3500
991.0000;17461.6800
992.0000;17478.9700
993.0000;17498.5000
994.0000;17527.8700
995.0000;17557.1000
996.0000;17578.3200
997.0000;17584.8200
998.0000;17584.1100
999.0000;17596.8900
1000.0000;17623.5400
1001.0000;17650.0300
1002.0000;17671.0900
1003.0000;17681.6100
1004.0000;17684.1500
1005.0000;17677.0700
1006.0000;17671.3800
1007.0000;17688.9500
1008.0000;17728.7000
1009.0000;17772.2300
1010.0000;17802.4100
1011.0000;17818.3700
1012.0000;17837.2200
1013.0000;17865.6900
1014.0000;17888.6300
1015.0000;17907.7100
1016.0000;17916.1800
1017.0000;17917.8700
1018.0000;17918.1100
1019.0000;17917.9900
1020.0000;17931.8600
1021.0000;17966.8300
1022.0000;18002.1800
1023.0000;18022.1100
1024.0000;18021.5900
1025.0000;18019.7500
1026.0000;18037.3500
1027.0000;18059.4600
1028.0000;18077.6500
1029.0000;18086.3900
1030.0000;18090.5300
1031.0000;18100.7400
1032.0000;18112.5800
1033.0000;18121.8700
1034.0000;18125.8600
1035.0000;18127.4300
1036.0000;18135.7100
1037.0000;18152.6700
1038.0000;18172.5300
1039.0000;18194.4900
1040.0000;18212.8500
1041.0000;18226.0600
1042.0000;18232.9100
1043.0000;18233.5900
1044.0000;18239.3600
1045.0000;18250.3900
1046.0000;18260.1900
1047.0000;18264.2400
1048.0000;18264.6700
1049.0000;18271.5600
1050.0000;18290.7600
1051.0000;18312.9400
1052.0000;18329.1200
1053.0000;18337.6400
1054.0000;18350.4500
1055.0000;18384.8000
1056.0000;18424.7300
1057.0000;18457.8700
1058.0000;18474.0800
1059.0000;18484.2000
1060.0000;18514.9600
1061.0000;18554.9600
1062.0000;18583.3400
1063.0000;18586.2500
1064.0000;18572.2900
1065.0000;18570.6700
1066.0000;18589.0500
1067.0000;18615.9600
1068.0000;18644.9400
1069.0000;18672.8700
1070.0000;18702.0800
1071.0000;18736.0200
1072.0000;18761.6100
1073.0000;18777.0300
1074.0000;18777.6500
1075.0000;18782.7100
1076.0000;18819.1600
1077.0000;18870.3600
1078.0000;18919.1900
1079.0000;18954.2900
1080.0000;18975.7700
1081.0000;18999.5900
1082.0000;19017.8200
1083.0000;19030.0400
1084.0000;19041.2700
1085.0000;19051.2100
1086.0000;19077.3300
1087.0000;19123.2900
1088.0000;19165.8000
1089.0000;19189.5100
1090.0000;19189.8400
1091.0000;19188.3600
1092.0000;19200.9900
1093.0000;19216.8400
1094.0000;19235.5800
1095.0000;19254.8000
1096.0000;19276.6100
1097.0000;19310.2500
1098.0000;19341.9100
1099.0000;19368.2700
1100.0000;19385.2000
1101.0000;19389.5800
1102.0000;19388.6800
1103.0000;19381.2500
1104.0000;19381.4600
1105.0000;19406.8900
1106.0000;19438.6400
1107.0000;19453.1500
1108.0000;19439.9600
1109.0000;19429.6500
1110.0000;19459.7100
1111.0000;19513.6300
1112.0000;19553.2700
1113.0000;19559.5800
1114.0000;19541.5400
1115.0000;19519.4600
1116.0000;19496.1000
1117.0000;19476.9500
1118.0000;19464.2000
1119.0000;19466.4900
1120.0000;19481.5100
1121.0000;19509.2500
1122.0000;19543.5800
1123.0000;19575.8900
1124.0000;19598.8900
1125.0000;19611.3800
1126.0000;19611.6100
1127.0000;19601.9500
1128.0000;19602.4000
1129.0000;19613.4400
1130.0000;19617.6700
1131.0000;19598.7000
1132.0000;19568.7900
1133.0000;19546.0400
1134.0000;19539.7200
1135.0000;19549.3900
1136.0000;19573.0100
1137.0000;19605.1600
1138.0000;19626.3700
1139.0000;19620.6300
1140.0000;19598.0800
1141.0000;19580.0500
1142.0000;19572.2400
1143.0000;19568.6000
1144.0000;19564.1700
1145.0000;19562.9100
1146.0000;19562.5800
1147.0000;19562.5800
1148.0000;19562.4600
1149.0000;19560.4200
1150.0000;19556.3600
1151.0000;19550.2700
1152.0000;19539.0100
1153.0000;19531.0700
1154.0000;19533.2900
1155.0000;19547.8800
1156.0000;19566.5200
1157.0000;19580.6100
1158.0000;19589.1400
1159.0000;19593.4200
1160.0000;19592.7600
1161.0000;19589.9800
1162.0000;19590.7400
1163.0000;19596.0300
1164.0000;19609.3500
1165.0000;19633.0100
1166.0000;19660.8400
1167.0000;19685.4700
1168.0000;19701.0700
1169.0000;19714.0600
1170.0000;19735.4000
1171.0000;19755.0000
1172.0000;19772.2800
1173.0000;19784.0500
1174.0000;19793.4300
1175.0000;19810.8900
1176.0000;19830.5900
1177.0000;19847.7100
1178.0000;19858.5800
1179.0000;19866.4100
1180.0000;19884.8900
1181.0000;19909.4900
1182.0000;19928.6000
1183.0000;19932.7000
1184.0000;19926.9600
1185.0000;19931.4100
1186.0000;19951.6200
1187.0000;19973.5800
1188.0000;19989.0100
1189.0000;19997.0700
1190.0000;20007.3300
1191.0000;20023.6100
1192.0000;20044.5600
1193.0000;20079.2100
1194.0000;20120.4100
1195.0000;20149.0300
1196.0000;20153.4500
1197.0000;20139.8700
1198.0000;20133.8700
1199.0000;20140.4900
1200.0000;20154.3700
1201.0000;20174.2900
1202.0000;20197.9700
1203.0000;20221.3200
1204.0000;20240.2000
1205.0000;20253.8300
1206.0000;20266.7200
1207.0000;20276.7500
1208.0000;20294.6500
1209.0000;20332.1100
1210.0000;20364.5400
1211.0000;20372.9600
1212.0000;20353.0900
1213.0000;20332.3400
1214.0000;20337.0300
1215.0000;20355.5800
1216.0000;20374.5400
1217.0000;20389.4300
1218.0000;20411.7600
1219.0000;20457.6700
1220.0000;20507.7900
1221.0000;20542.4900
1222.0000;20548.6400
1223.0000;20535.4500
1224.0000;20528.3400
1225.0000;20522.0200
1226.0000;20515.0400
1227.0000;20505.5400
1228.0000;20502.0800
1229.0000;20512.5700
1230.0000;20536.7800
1231.0000;20558.6200
1232.0000;20565.2500
1233.0000;20560.2000
1234.0000;20554.9800
1235.0000;20551.8000
1236.0000;20553.6900
1237.0000;20567.8500
1238.0000;20587.7900
1239.0000;20601.3600
1240.0000;20601.3900
1241.0000;20597.4500
1242.0000;20602.0500
1243.0000;20612.8300
1244.0000;20627.4800
1245.0000;20644.9800
1246.0000;20661.7100
1247.0000;20676.1400
1248.0000;20685.6000
1249.0000;20697.4400
1250.0000;20721.0900
1251.0000;20744.5500
1252.0000;20762.7700
1253.0000;20770.9200
1254.0000;20776.6600
1255.0000;20792.7000
1256.0000;20809.9200
1257.0000;20829.9700
1258.0000;20850.5700
1259.0000;20862.5500
1260.0000;20862.0300
1261.0000;20849.2800
1262.0000;20840.5700
1263.0000;20844.4700
1264.0000;20854.1400
1265.0000;20862.7600
1266.0000;20870.4900
1267.0000;20877.9400
1268.0000;20882.5100
1269.0000;20891.1300
1270.0000;20917.1900
1271.0000;20957.1300
1272.0000;20989.4000
1273.0000;21001.1400
1274.0000;20998.8100
1275.0000;21008.2900
1276.0000;21030.7700
1277.0000;21047.4500
1278.0000;21046.3500
1279.0000;21035.9600
1280.0000;21038.8200
1281.0000;21061.1100
1282.0000;21087.4300
1283.0000;21106.5100
1284.0000;21117.6500
1285.0000;21127.8000
1286.0000;21137.5800
1287.0000;21151.1200
1288.0000;21180.5000
1289.0000;21217.5100
1290.0000;21256.8000
1291.0000;21294.7300
1292.0000;21322.6300
1293.0000;21342.7200
1294.0000;21349.4500
1295.0000;21359.0500
1296.0000;21388.2500
1297.0000;21414.2900
1298.0000;21421.9400
1299.0000;21407.9500
1300.0000;21398.2200
1301.0000;21417.2800
1302.0000;21447.7700
1303.0000;21472.6000
1304.0000;21485.2100
1305.0000;21501.4000
1306.0000;21542.3600
1307.0000;21585.1900
1308.0000;21619.9700
1309.0000;21637.3000
1310.0000;21638.7000
1311.0000;21634.2500
1312.0000;21623.8000
1313.0000;21626.7500
1314.0000;21650.4000
1315.0000;21681.9600
1316.0000;21713.3700
1317.0000;21737.4400
1318.0000;21756.5100
1319.0000;21766.8400
1320.0000;21772.7900
1321.0000;21789.2900
1322.0000;21810.7700
1323.0000;21834.2300
1324.0000;21862.2700
1325.0000;21877.1400
1326.0000;21867.1400
1327.0000;21835.9600
1328.0000;21817.6500
1329.0000;21838.9700
1330.0000;21875.7700
1331.0000;21896.4400
1332.0000;21898.7100
1333.0000;21898.1600
1334.0000;21907.7900
1335.0000;21916.8700
1336.0000;21923.1200
1337.0000;21924.6500
1338.0000;21923.1400
1339.0000;21917.6400
1340.0000;21915.3700
1341.0000;21927.8800
1342.0000;21956.4600
1343.0000;21986.0000
1344.0000;22012.7000
1345.0000;22025.0700
1346.0000;22021.6000
1347.0000;21998.9300
1348.0000;21979.4500
1349.0000;21986.7900
1350.0000;22010.7500
1351.0000;22031.1000
1352.0000;22041.6600
1353.0000;22044.7900
1354.0000;22045.6700
1355.0000;22040.0900
1356.0000;22031.8900
1357.0000;22022.9400
1358.0000;22017.6100
1359.0000;22020.2800
1360.0000;22030.6700
1361.0000;22040.3900
1362.0000;22045.4900
1363.0000;22057.5900
1364.0000;22091.0600
1365.0000;22134.0200
1366.0000;22165.9400
1367.0000;22173.9000
1368.0000;22171.1500
1369.0000;22184.2500
1370.0000;22200.8100
1371.0000;22208.6000
1372.0000;22200.9700
1373.0000;22189.3200
1374.0000;22186.9200
1375.0000;22193.8100
1376.0000;22206.2700
1377.0000;22221.9900
1378.0000;22240.2500
1379.0000;22262.4800
1380.0000;22283.2800
1381.0000;22302.3400
1382.0000;22317.6300
1383.0000;22330.6300
1384.0000;22354.8700
1385.0000;22381.6200
1386.0000;22398.3700
1387.0000;22395.5000
1388.0000;22389.6300
1389.0000;22409.1200
1390.0000;22447.2300
1391.0000;22485.4500
1392.0000;22513.4700
1393.0000;22528.2800
1394.0000;22536.8800
1395.0000;22535.0800
1396.0000;22538.1900
1397.0000;22557.3900
1398.0000;22581.2900
1399.0000;22602.2200
1400.0000;22617.9300
1401.0000;22637.9700
1402.0000;22666.5300
1403.0000;22698.6500
1404.0000;22743.3300
1405.0000;22787.7400
1406.0000;22819.1800
1407.0000;22828.1600
1408.0000;22825.0200
1409.0000;22842.4400
1410.0000;22872.5300
1411.0000;22900.5200
1412.0000;22918.8900
1413.0000;22927.6600
1414.0000;22934.6800
1415.0000;22938.5600
1416.0000;22952.7000
1417.0000;22989.1700
1418.0000;23023.6300
1419.0000;23035.9400
1420.0000;23022.9700
1421.0000;23011.5300
1422.0000;23017.6900
1423.0000;23027.7400
1424.0000;23032.7700
1425.0000;23032.9200
1426.0000;23032.9200
1427.0000;23035.1000
1428.0000;23037.7800
1429.0000;23039.3600
1430.0000;23041.6300
1431.0000;23051.0500
1432.0000;23071.2800
1433.0000;23092.6900
1434.0000;23104.7600
1435.0000;23108.5000
1436.0000;23122.5900
1437.0000;23155.9500
1438.0000;23189.8300
1439.0000;23211.3700
1440.0000;23218.0400
1441.0000;23229.9200
1442.0000;23255.9500
1443.0000;23276.0000
1444.0000;23278.7800
1445.0000;23265.0800
1446.0000;23259.2600
1447.0000;23272.9800
1448.0000;23280.6700
1449.0000;23256.1700
1450.0000;23213.7000
1451.0000;23181.3200
1452.0000;23173.2000
1453.0000;23185.0900
1454.0000;23201.4500
1455.0000;23229.3600
1456.0000;23268.7900
1457.0000;23313.5700
1458.0000;23347.2000
1459.0000;23367.2100
1460.0000;23359.3200
1461.0000;23331.7700
1462.0000;23285.4100
1463.0000;23252.4900
1464.0000;23266.3300
1465.0000;23307.7000
1466.0000;23321.2800
1467.0000;23295.5000
1468.0000;23272.8000
1469.0000;23293.8700
1470.0000;23332.8400
1471.0000;23356.7800
1472.0000;23355.2700
1473.0000;23349.6800
1474.0000;23361.2000
1475.0000;23373.7700
1476.0000;23374.7300
1477.0000;23363.8400
1478.0000;23359.9800
1479.0000;23379.1800
1480.0000;23407.9700
1481.0000;23429.6200
1482.0000;23439.9900
1483.0000;23444.7200
1484.0000;23446.9500
1485.0000;23449.3600
1486.0000;23465.0400
1487.0000;23490.1100
1488.0000;23517.3100
1489.0000;23541.3400
1490.0000;23555.4200
1491.0000;23561.1400
1492.0000;23553.0100
1493.0000;23536.5300
1494.0000;23510.9100
1495.0000;23503.8000
1496.0000;23548.4300
1497.0000;23624.4600
1498.0000;23680.2000
1499.0000;23683.5400
1500.0000;23669.2200
1501.0000;23679.7500
1502.0000;23700.5100
1503.0000;23728.1700
1504.0000;23758.4900
1505.0000;23787.3900
1506.0000;23819.1100
1507.0000;23843.2200
1508.0000;23870.2900
1509.0000;23895.2200
1510.0000;23912.3400
1511.0000;23925.8300
1512.0000;23931.8000
1513.0000;23947.0100
1514.0000;23968.8800
1515.0000;23983.2200
1516.0000;23979.1000
1517.0000;23971.9600
1518.0000;23989.0100
1519.0000;24026.6600
1520.0000;24068.2900
1521.0000;24100.4300
1522.0000;24125.9600
1523.0000;24160.8600
1524.0000;24192.8300
1525.0000;24214.4400
1526.0000;24219.6300
1527.0000;24220.9800
1528.0000;24245.8200
1529.0000;24280.9900
1530.0000;24312.5300
1531.0000;24331.3400
1532.0000;24341.4700
1533.0000;24355.5900
1534.0000;24362.5700
1535.0000;24366.2600
1536.0000;24365.4300
1537.0000;24361.2100
1538.0000;24362.0100
1539.0000;24357.5900
1540.0000;24336.8300
1541.0000;24302.5700
1542.0000;24275.1200
1543.0000;24267.0500
1544.0000;24271.4400
1545.0000;24264.1900
1546.0000;24251.8800
1547.0000;24249.5600
1548.0000;24264.7000
1549.0000;24286.5400
1550.0000;24299.8000
1551.0000;24306.3400
1552.0000;24319.0700
1553.0000;24341.4400
1554.0000;24361.3800
1555.0000;24370.5100
1556.0000;24372.7000
1557.0000;24390.5700
1558.0000;24426.1100
1559.0000;24451.8800
1560.0000;24448.2700
1561.0000;24427.0800
1562.0000;24418.0800
1563.0000;24425.3600
1564.0000;24441.8300
1565.0000;24465.1500
1566.0000;24488.0600
1567.0000;24500.1300
1568.0000;24500.7500
1569.0000;24509.9200
1570.0000;24538.5700
1571.0000;24566.5500
1572.0000;24580.0000
1573.0000;24578.8000
1574.0000;24581.4800
1575.0000;24593.0000
1576.0000;24606.4300
1577.0000;24622.5400
1578.0000;24635.2000
1579.0000;24645.3600
1580.0000;24648.4500
1581.0000;24639.4000
1582.0000;24613.3800
1583.0000;24585.8600
1584.0000;24579.0300
1585.0000;24594.9100
1586.0000;24608.9700
1587.0000;24603.2900
1588.0000;24601.0700
1589.0000;24625.7500
1590.0000;24666.3900
1591.0000;24699.7600
1592.0000;24713.1100
1593.0000;24716.6900
1594.0000;24730.6000
1595.0000;24740.1900
1596.0000;24743.7100
1597.0000;24738.6800
1598.0000;24729.5600
1599.0000;24722.2100
1600.0000;24715.1800
1601.0000;24703.7800
1602.0000;24693.9100
1603.0000;24700.0700
1604.0000;24732.0700
1605.0000;24764.1700
1606.0000;24765.1800
1607.0000;24742.1500
1608.0000;24731.9000
1609.0000;24746.5900
1610.0000;24769.6800
1611.0000;24785.9300
1612.0000;24799.0500
1613.0000;24815.9300
1614.0000;24834.2100
1615.0000;24850.5900
1616.0000;24867.8000
1617.0000;24878.0300
1618.0000;24878.3000
1619.0000;24872.1300
1620.0000;24885.7100
1621.0000;24933.2600
1622.0000;24979.5500
1623.0000;24988.6900
1624.0000;24970.5600
1625.0000;24964.9700
1626.0000;24982.0400
1627.0000;25007.9000
1628.0000;25037.7900
1629.0000;25064.7700
1630.0000;25089.3100
1631.0000;25103.6600
1632.0000;25113.6900
1633.0000;25121.3900
1634.0000;25130.2500
1635.0000;25157.2200
1636.0000;25190.4700
1637.0000;25218.7200
1638.0000;25232.4700
1639.0000;25227.4300
1640.0000;25204.6100
1641.0000;25171.8000
1642.0000;25156.9600
1643.0000;25166.4500
1644.0000;25181.9000
1645.0000;25191.0300
1646.0000;25196.3100
1647.0000;25194.8900
1648.0000;25189.0900
1649.0000;25193.0800
1650.0000;25213.8000
1651.0000;25232.5600
1652.0000;25235.1000
1653.0000;25225.1000
1654.0000;25216.4500
1655.0000;25212.6800
1656.0000;25214.0300
1657.0000;25221.5100
1658.0000;25233.7300
1659.0000;25251.2600
1660.0000;25266.3200
1661.0000;25265.5500
1662.0000;25241.3800
1663.0000;25213.6200
1664.0000;25203.2500
1665.0000;25206.1100
1666.0000;25206.2600
1667.0000;25201.5700
1668.0000;25190.4700
1669.0000;25169.5700
1670.0000;25146.4100
1671.0000;25126.0900
1672.0000;25115.5100
1673.0000;25113.3300
1674.0000;25119.8200
1675.0000;25132.1600
1676.0000;25141.7200
1677.0000;25148.6800
1678.0000;25155.0600
1679.0000;25157.9800
1680.0000;25149.7700
1681.0000;25122.9200
1682.0000;25095.2500
1683.0000;25088.4000
1684.0000;25102.3000
1685.0000;25117.4000
1686.0000;25125.0000
1687.0000;25118.7900
1688.0000;25084.5800
1689.0000;25044.9700
1690.0000;25034.0500
1691.0000;25060.9600
1692.0000;25087.0200
1693.0000;25081.7900
1694.0000;25072.2400
1695.0000;25090.3400
1696.0000;25120.3200
1697.0000;25130.5800
1698.0000;25106.3400
1699.0000;25076.1000
1700.0000;25067.3000
1701.0000;25071.2600
1702.0000;25076.2300
1703.0000;25079.8200
1704.0000;25070.2500
1705.0000;25038.6300
1706.0000;25008.2500
1707.0000;25005.3600
1708.0000;25024.5500
1709.0000;25035.8700
1710.0000;25030.8100
1711.0000;25019.0100
1712.0000;25003.2200
1713.0000;24991.3500
1714.0000;24989.0400
1715.0000;25002.6400
1716.0000;25034.7900
1717.0000;25084.8900
1718.0000;25136.1900
1719.0000;25178.6800
1720.0000;25201.5100
1721.0000;25220.8300
1722.0000;25231.0600
1723.0000;25235.2700
1724.0000;25242.9600
1725.0000;25241.6900
1726.0000;25227.7800
1727.0000;25205.1200
1728.0000;25190.9600
1729.0000;25192.0500
1730.0000;25198.2200
1731.0000;25200.4700
1732.0000;25199.1800
1733.0000;25188.4500
1734.0000;25171.1400
1735.0000;25159.3200
1736.0000;25160.2800
1737.0000;25166.6600
1738.0000;25164.4900
1739.0000;25162.7800
1740.0000;25169.8600
1741.0000;25186.7700
1742.0000;25207.9600
1743.0000;25229.4300
1744.0000;25248.9800
1745.0000;25276.1200
1746.0000;25296.7500
1747.0000;25300.9000
1748.0000;25282.2200
1749.0000;25255.8800
1750.0000;25235.3800
1751.0000;25223.6400
1752.0000;25224.1800
1753.0000;25236.3600
1754.0000;25238.7800
1755.0000;25220.8900
1756.0000;25205.8200
1757.0000;25218.6100
1758.0000;25240.1900
1759.0000;25237.6600
1760.0000;25210.4700
1761.0000;25195.3100
1762.0000;25210.8600
1763.0000;25242.6800
1764.0000;25276.6200
1765.0000;25303.4300
1766.0000;25311.7300
1767.0000;25295.0500
1768.0000;25276.2600
1769.0000;25276.8200
1770.0000;25279.7600
1771.0000;25266.5800
1772.0000;25246.4200
1773.0000;25236.3500
1774.0000;25243.1900
1775.0000;25247.6800
1776.0000;25235.2800
1777.0000;25211.4400
1778.0000;25177.1100
1779.0000;25142.5800
1780.0000;25128.4300
1781.0000;25145.3700
1782.0000;25171.0000
1783.0000;25179.2000
1784.0000;25177.4400
1785.0000;25172.2800
1786.0000;25165.0900
1787.0000;25166.6800
1788.0000;25184.1100
1789.0000;25200.5200
1790.0000;25203.4500
1791.0000;25192.7700
1792.0000;25176.7800
1793.0000;25157.1000
1794.0000;25133.9000
1795.0000;25107.7900
1796.0000;25086.8000
1797.0000;25070.6800
1798.0000;25062.0100
1799.0000;25040.2400
1800.0000;25010.1300
1801.0000;24996.2900
1802.0000;25017.5000
1803.0000;25043.3000
1804.0000;25032.4500
1805.0000;24998.9200
1806.0000;24976.2400
1807.0000;24974.8400
1808.0000;24971.3200
1809.0000;24950.4600
1810.0000;24923.4900
1811.0000;24893.7400
1812.0000;24867.4100
1813.0000;24846.1500
1814.0000;24833.4300
1815.0000;24817.8300
1816.0000;24783.0100
1817.0000;24751.8600
1818.0000;24733.7400
1819.0000;24733.5700
1820.0000;24731.4100
1821.0000;24723.1100
1822.0000;24715.9600
1823.0000;24706.9400
1824.0000;24707.9700
1825.0000;24730.4000
1826.0000;24766.1900
1827.0000;24788.7200
1828.0000;24785.8500
1829.0000;24771.0700
1830.0000;24760.1900
1831.0000;24746.9700
1832.0000;24730.3700
1833.0000;24715.4000
1834.0000;24706.0500
1835.0000;24705.7000
1836.0000;24716.1700
1837.0000;24736.2700
1838.0000;24758.0300
1839.0000;24769.0200
1840.0000;24768.7500
1841.0000;24778.3000
1842.0000;24803.1000
1843.0000;24817.1000
1844.0000;24800.4800
1845.0000;24773.4900
1846.0000;24769.1400
1847.0000;24784.6100
1848.0000;24797.5100
1849.0000;24799.6600
1850.0000;24800.3000
1851.0000;24801.9600
1852.0000;24810.5900
1853.0000;24838.6500
1854.0000;24877.3200
1855.0000;24909.9700
1856.0000;24925.4800
1857.0000;24916.8300
1858.0000;24882.2900
1859.0000;24837.7700
1860.0000;24807.9200
1861.0000;24805.3800
1862.0000;24832.1100
1863.0000;24887.9500
1864.0000;24934.9200
1865.0000;24939.2100
1866.0000;24921.5200
1867.0000;24922.6600
1868.0000;24933.4700
1869.0000;24942.9100
1870.0000;24947.3800
1871.0000;24946.3100
1872.0000;24934.4200
1873.0000;24932.0600
1874.0000;24962.7600
1875.0000;25019.2700
1876.0000;25077.4000
1877.0000;25123.0600
1878.0000;25149.1600
1879.0000;25151.6500
1880.0000;25137.8000
1881.0000;25138.0200
1882.0000;25146.4900
1883.0000;25165.5700
1884.0000;25190.4600
1885.0000;25203.6100
1886.0000;25193.2300
1887.0000;25174.9400
1888.0000;25169.1400
1889.0000;25174.1800
1890.0000;25184.2800
1891.0000;25200.1100
1892.0000;25222.7100
1893.0000;25249.9400
1894.0000;25282.5400
1895.0000;25334.2300
1896.0000;25378.0800
1897.0000;25398.5400
1898.0000;25387.9000
1899.0000;25380.3200
1900.0000;25390.1500
1901.0000;25398.4400
1902.0000;25392.2300
1903.0000;25384.4800
1904.0000;25396.4300
1905.0000;25419.3700
1906.0000;25424.4400
1907.0000;25401.4300
1908.0000;25387.0500
1909.0000;25408.9200
1910.0000;25444.4400
1911.0000;25462.7600
1912.0000;25468.5400
1913.0000;25484.3500
1914.0000;25509.8400
1915.0000;25532.7300
1916.0000;25547.4700
1917.0000;25553.7700
1918.0000;25563.2400
1919.0000;25568.9900
1920.0000;25572.3600
1921.0000;25574.4200
1922.0000;25588.1700
1923.0000;25620.5100
1924.0000;25657.4700
1925.0000;25697.4700
1926.0000;25723.1100
1927.0000;25730.6900
1928.0000;25719.2800
1929.0000;25723.5400
1930.0000;25755.5900
1931.0000;25793.8700
1932.0000;25822.2000
1933.0000;25842.9700
1934.0000;25873.9200
1935.0000;25897.1000
1936.0000;25895.6100
1937.0000;25864.2900
1938.0000;25835.7000
1939.0000;25831.4400
1940.0000;25846.4200
1941.0000;25869.2800
1942.0000;25901.1800
1943.0000;25933.1900
1944.0000;25959.8300
1945.0000;25986.3500
1946.0000;26015.1800
1947.0000;26030.8500
1948.0000;26032.3100
1949.0000;26020.7600
1950.0000;26018.7000
1951.0000;26023.5100
1952.0000;26025.7100
1953.0000;26023.4300
1954.0000;26030.7500
1955.0000;26054.8900
1956.0000;26091.9800
1957.0000;26137.7300
1958.0000;26184.8400
1959.0000;26237.7700
1960.0000;26280.3700
1961.0000;26296.0800
1962.0000;26271.8300
1963.0000;26247.2000
1964.0000;26277.2900
1965.0000;26328.8200
1966.0000;26358.9900
1967.0000;26363.6100
1968.0000;26367.6400
1969.0000;26376.2000
1970.0000;26390.3800
1971.0000;26413.9100
1972.0000;26445.6300
1973.0000;26490.5700
1974.0000;26536.9900
1975.0000;26576.1800
1976.0000;26599.9100
1977.0000;26633.5100
1978.0000;26688.6500
1979.0000;26733.1000
1980.0000;26760.9600
1981.0000;26763.4000
1982.0000;26765.5200
1983.0000;26763.7300
1984.0000;26768.9000
1985.0000;26784.0200
1986.0000;26802.8600
1987.0000;26822.8600
1988.0000;26836.8800
1989.0000;26846.6500
1990.0000;26845.1200
1991.0000;26837.8200
1992.0000;26824.3800
1993.0000;26806.1600
1994.0000;26785.8300
1995.0000;26780.2200
1996.0000;26802.4600
1997.0000;26835.2900
1998.0000;26844.9300
1999.0000;26840.3000
2000.0000;26859.1400
2001.0000;26901.8400
2002.0000;26928.4200
2003.0000;26915.3100
2004.0000;26894.6200
2005.0000;26902.9800
2006.0000;26928.5500
2007.0000;26961.8300
2008.0000;26994.4600
2009.0000;27015.1900
2010.0000;27016.0000
2011.0000;27016.4700
2012.0000;27033.7900
2013.0000;27052.2900
2014.0000;27067.9900
2015.0000;27073.0600
2016.0000;27066.1700
2017.0000;27047.8100
2018.0000;27032.8000
2019.0000;27029.2900
2020.0000;27037.2000
2021.0000;27056.0800
2022.0000;27077.1900
2023.0000;27083.7700
2024.0000;27082.4300
2025.0000;27102.3500
2026.0000;27137.8000
2027.0000;27152.3000
2028.0000;27127.6600
2029.0000;27096.4600
2030.0000;27093.1600
2031.0000;27102.6900
2032.0000;27108.8800
2033.0000;27110.9400
2034.0000;27101.4200
2035.0000;27081.9900
2036.0000;27073.2000
2037.0000;27087.0900
2038.0000;27109.7000
2039.0000;27123.5500
2040.0000;27138.4200
2041.0000;27171.8200
2042.0000;27207.2300
2043.0000;27220.4700
2044.0000;27201.8800
2045.0000;27177.3400
2046.0000;27162.9000
2047.0000;27159.2000
2048.0000;27167.7000
2049.0000;27185.0600
2050.0000;27195.4000
2051.0000;27198.0200
2052.0000;27199.4100
2053.0000;27199.7400
2054.0000;27199.1600
2055.0000;27199.3000
2056.0000;27197.3000
2057.0000;27191.7400
2058.0000;27184.4900
2059.0000;27176.9600
2060.0000;27172.0300
2061.0000;27170.5100
2062.0000;27173.3400
2063.0000;27174.3900
2064.0000;27167.2200
2065.0000;27171.4000
2066.0000;27207.4600
2067.0000;27252.1600
2068.0000;27270.4000
2069.0000;27264.4800
2070.0000;27273.8100
2071.0000;27302.6200
2072.0000;27322.1600
2073.0000;27319.7100
2074.0000;27305.2500
2075.0000;27299.2800
2076.0000;27287.1600
2077.0000;27255.7100
2078.0000;27216.0000
2079.0000;27190.3500
2080.0000;27188.1500
2081.0000;27186.5600
2082.0000;27172.4800
2083.0000;27172.9000
2084.0000;27209.5900
2085.0000;27250.1000
2086.0000;27252.1500
2087.0000;27225.1400
2088.0000;27217.6600
2089.0000;27235.6600
2090.0000;27256.9500
2091.0000;27271.1700
2092.0000;27284.5800
2093.0000;27300.0900
2094.0000;27315.1400
2095.0000;27341.5100
2096.0000;27362.6600
2097.0000;27359.1800
2098.0000;27331.7100
2099.0000;27312.5800
2100.0000;27317.9400
2101.0000;27340.8500
2102.0000;27379.5800
2103.0000;27409.7500
2104.0000;27403.0500
2105.0000;27376.8300
2106.0000;27384.8900
2107.0000;27419.3500
2108.0000;27436.5500
2109.0000;27423.7400
2110.0000;27404.1300
2111.0000;27390.3000
2112.0000;27392.4000
2113.0000;27421.0400
2114.0000;27463.4900
2115.0000;27502.2100
2116.0000;27525.2000
2117.0000;27533.8600
2118.0000;27524.8900
2119.0000;27519.9300
2120.0000;27531.6900
2121.0000;27549.0300
2122.0000;27570.0800
2123.0000;27579.9800
2124.0000;27565.4700
2125.0000;27535.1300
2126.0000;27515.7400
2127.0000;27514.4300
2128.0000;27526.4800
2129.0000;27550.2100
2130.0000;27563.5300
2131.0000;27549.3600
2132.0000;27520.4000
2133.0000;27485.3900
2134.0000;27465.5100
2135.0000;27485.8400
2136.0000;27539.9400
2137.0000;27587.1100
2138.0000;27610.5800
2139.0000;27618.5000
2140.0000;27612.6500
2141.0000;27587.5700
2142.0000;27545.9900
2143.0000;27509.4800
2144.0000;27506.5400
2145.0000;27525.3500
2146.0000;27514.6500
2147.0000;27479.4000
2148.0000;27463.2200
2149.0000;27478.5100
2150.0000;27492.8100
2151.0000;27483.8200
2152.0000;27477.1000
2153.0000;27500.5300
2154.0000;27524.5300
2155.0000;27503.0200
2156.0000;27461.7600
2157.0000;27474.2300
2158.0000;27541.0400
2159.0000;27576.7700
2160.0000;27542.5200
2161.0000;27496.6700
2162.0000;27480.2600
2163.0000;27480.5700
2164.0000;27486.1600
2165.0000;27498.5400
2166.0000;27506.7500
2167.0000;27506.2200
2168.0000;27493.8300
2169.0000;27469.7200
2170.0000;27441.7100
2171.0000;27418.1900
2172.0000;27402.5300
2173.0000;27395.4300
2174.0000;27394.3700
2175.0000;27378.8700
2176.0000;27364.8400
2177.0000;27368.1600
2178.0000;27387.6900
2179.0000;27405.6600
2180.0000;27414.2400
2181.0000;27416.6500
2182.0000;27413.0300
2183.0000;27404.7100
2184.0000;27393.7500
2185.0000;27389.1800
2186.0000;27398.9800
2187.0000;27420.0300
2188.0000;27446.5800
2189.0000;27467.0400
2190.0000;27460.3400
2191.0000;27421.2000
2192.0000;27385.9100
2193.0000;27375.5800
2194.0000;27375.1400
2195.0000;27370.1300
2196.0000;27364.2500
2197.0000;27349.2400
2198.0000;27330.8800
2199.0000;27310.7200
2200.0000;27295.2400
2201.0000;27280.9700
2202.0000;27273.2000
2203.0000;27280.0600
2204.0000;27303.9400
2205.0000;27335.8300
2206.0000;27366.8900
2207.0000;27392.9400
2208.0000;27417.7100
2209.0000;27435.5200
2210.0000;27462.8500
2211.0000;27487.1200
2212.0000;27496.5900
2213.0000;27485.1000
2214.0000;27464.7400
2215.0000;27444.0700
2216.0000;27415.8400
2217.0000;27375.6400
2218.0000;27340.2400
2219.0000;27311.7800
2220.0000;27301.6300
2221.0000;27300.1300
2222.0000;27308.5400
2223.0000;27305.3800
2224.0000;27291.9600
2225.0000;27290.3700
2226.0000;27307.6600
2227.0000;27338.2000
2228.0000;27379.6200
2229.0000;27398.1600
2230.0000;27362.8500
2231.0000;27311.6300
2232.0000;27311.6200
2233.0000;27347.2300
2234.0000;27369.3500
2235.0000;27374.5500
2236.0000;27380.5600
2237.0000;27386.3500
2238.0000;27374.3100
2239.0000;27338.6300
2240.0000;27299.7800
2241.0000;27276.2900
2242.0000;27262.0400
2243.0000;27228.5400
2244.0000;27210.2800
2245.0000;27233.4200
2246.0000;27289.6800
2247.0000;27334.7800
2248.0000;27352.0800
2249.0000;27348.9500
2250.0000;27325.6100
2251.0000;27304.0600
2252.0000;27301.7900
2253.0000;27320.7200
2254.0000;27361.8700
2255.0000;27408.8200
2256.0000;27446.7600
2257.0000;27458.5400
2258.0000;27446.6900
2259.0000;27410.1600
2260.0000;27374.5300
2261.0000;27351.9000
2262.0000;27341.7100
2263.0000;27347.0400
2264.0000;27359.0700
2265.0000;27368.4900
2266.0000;27366.7100
2267.0000;27340.2000
2268.0000;27309.2200
2269.0000;27302.5500
2270.0000;27313.8300
2271.0000;27309.8600
2272.0000;27297.6000
2273.0000;27308.2600
2274.0000;27343.0400
2275.0000;27364.1400
2276.0000;27353.1800
2277.0000;27332.8700
2278.0000;27318.3800
2279.0000;27318.6500
2280.0000;27351.9400
2281.0000;27384.5000
2282.0000;27364.9900
2283.0000;27318.0400
2284.0000;27310.2300
2285.0000;27339.4400
2286.0000;27352.6400
2287.0000;27341.0000
2288.0000;27339.0500
2289.0000;27358.9100
2290.0000;27365.3700
2291.0000;27336.4500
2292.0000;27300.8700
2293.0000;27291.5800
2294.0000;27290.7600
2295.0000;27266.2300
2296.0000;27238.9700
2297.0000;27227.0100
2298.0000;27236.8800
2299.0000;27256.9800
2300.0000;27282.8300
2301.0000;27301.9100
2302.0000;27305.2500
2303.0000;27315.3000
2304.0000;27349.5200
2305.0000;27362.0300
2306.0000;27318.2000
2307.0000;27263.3300
2308.0000;27250.8800
2309.0000;27269.8200
2310.0000;27284.2900
2311.0000;27295.0600
2312.0000;27294.9100
2313.0000;27285.2600
2314.0000;27286.9300
2315.0000;27304.6600
2316.0000;27325.5500
2317.0000;27340.7500
2318.0000;27356.7800
2319.0000;27378.6200
2320.0000;27392.2400
2321.0000;27391.5400
2322.0000;27381.4000
2323.0000;27379.8600
2324.0000;27383.4700
2325.0000;27388.5100
2326.0000;27393.3800
2327.0000;27395.8400
2328.0000;27394.3400
2329.0000;27388.2300
2330.0000;27379.4000
2331.0000;27387.3600
2332.0000;27423.0900
2333.0000;27453.0100
2334.0000;27450.7800
2335.0000;27438.5000
2336.0000;27455.3500
2337.0000;27468.6100
2338.0000;27435.7800
2339.0000;27392.2500
2340.0000;27405.6300
2341.0000;27469.8000
2342.0000;27517.5100
2343.0000;27532.4100
2344.0000;27537.1500
2345.0000;27534.7800
2346.0000;27524.2700
2347.0000;27509.2900
2348.0000;27503.8600
2349.0000;27521.2700
2350.0000;27542.2000
2351.0000;27545.2500
2352.0000;27533.3600
2353.0000;27513.3100
2354.0000;27494.4300
2355.0000;27493.6600
2356.0000;27509.4100
2357.0000;27513.8700
2358.0000;27506.5200
2359.0000;27510.7900
2360.0000;27531.4400
2361.0000;27547.7100
2362.0000;27548.2700
2363.0000;27558.4400
2364.0000;27598.0800
2365.0000;27629.3500
2366.0000;27628.2000
2367.0000;27599.3700
2368.0000;27554.9700
2369.0000;27517.5500
2370.0000;27521.6000
2371.0000;27561.2800
2372.0000;27586.5500
2373.0000;27593.4900
2374.0000;27605.5500
2375.0000;27621.8700
2376.0000;27634.5700
2377.0000;27639.3200
2378.0000;27630.2100
2379.0000;27605.3400
2380.0000;27589.7800
2381.0000;27605.0400
2382.0000;27631.2500
2383.0000;27645.9100
2384.0000;27649.3900
2385.0000;27647.9900
2386.0000;27635.6000
2387.0000;27611.9300
2388.0000;27586.4800
2389.0000;27576.7900
2390.0000;27586.4500
2391.0000;27592.0600
2392.0000;27589.5600
2393.0000;27586.9300
2394.0000;27585.9100
2395.0000;27580.8500
2396.0000;27568.7200
2397.0000;27567.0300
2398.0000;27589.2700
2399.0000;27615.2400
2400.0000;27627.1900
2401.0000;27625.1700
2402.0000;27613.4600
2403.0000;27601.6000
2404.0000;27612.7600
2405.0000;27641.7900
2406.0000;27677.6400
2407.0000;27701.7800
2408.0000;27681.0800
2409.0000;27615.8400
2410.0000;27560.4200
2411.0000;27540.9900
2412.0000;27543.0700
2413.0000;27560.9400
2414.0000;27566.7600
2415.0000;27532.1300
2416.0000;27500.2700
2417.0000;27502.2700
2418.0000;27524.5000
2419.0000;27549.6000
2420.0000;27562.6800
2421.0000;27536.1700
2422.0000;27493.9900
2423.0000;27488.3700
2424.0000;27512.4900
2425.0000;27523.1300
2426.0000;27518.3400
2427.0000;27514.4700
2428.0000;27512.9400
2429.0000;27509.2000
2430.0000;27503.2000
2431.0000;27496.9900
2432.0000;27492.2800
2433.0000;27502.3700
2434.0000;27535.3600
2435.0000;27559.6700
2436.0000;27550.1600
2437.0000;27516.5900
2438.0000;27474.4900
2439.0000;27441.7800
2440.0000;27441.3900
2441.0000;27464.7200
2442.0000;27471.8900
2443.0000;27466.4000
2444.0000;27459.1800
2445.0000;27447.8000
2446.0000;27424.9900
2447.0000;27398.3800
2448.0000;27383.9300
2449.0000;27390.4300
2450.0000;27408.2900
2451.0000;27430.6200
2452.0000;27440.7700
2453.0000;27427.6400
2454.0000;27411.8300
2455.0000;27408.7300
2456.0000;27416.8900
2457.0000;27439.6000
2458.0000;27451.6000
2459.0000;27420.3700
2460.0000;27377.0100
2461.0000;27369.3300
2462.0000;27380.0600
2463.0000;27362.6400
2464.0000;27338.8100
2465.0000;27344.8400
2466.0000;27375.2100
2467.0000;27387.6300
2468.0000;27377.5600
2469.0000;27368.5800
2470.0000;27365.0800
2471.0000;27360.3600
2472.0000;27352.7200
2473.0000;27328.6500
2474.0000;27286.2100
2475.0000;27246.1600
2476.0000;27221.4900
2477.0000;27240.5600
2478.0000;27317.4000
2479.0000;27398.2100
2480.0000;27430.9600
2481.0000;27416.9000
2482.0000;27380.3300
2483.0000;27333.3200
2484.0000;27321.8300
2485.0000;27332.7200
2486.0000;27319.7900
2487.0000;27301.6300
2488.0000;27303.8800
2489.0000;27328.8000
2490.0000;27362.9500
2491.0000;27398.5000
2492.0000;27433.0900
2493.0000;27454.0400
2494.0000;27454.3200
2495.0000;27430.2800
2496.0000;27399.8300
2497.0000;27375.5200
2498.0000;27354.6700
2499.0000;27339.6400
2500.0000;27331.9300
2501.0000;27329.5300
2502.0000;27322.8400
2503.0000;27295.2100
2504.0000;27279.9600
2505.0000;27302.5800
2506.0000;27341.5000
2507.0000;27372.5700
2508.0000;27377.6000
2509.0000;27340.3400
2510.0000;27284.3200
2511.0000;27258.2300
2512.0000;27263.3000
2513.0000;27272.2800
2514.0000;27284.5800
2515.0000;27284.4100
2516.0000;27274.5900
2517.0000;27285.4400
2518.0000;27307.8400
2519.0000;27284.8900
2520.0000;27213.5700
2521.0000;27167.9200
2522.0000;27178.7500
2523.0000;27190.4600
2524.0000;27182.4600
2525.0000;27193.7400
2526.0000;27237.1400
2527.0000;27269.2400
2528.0000;27262.0600
2529.0000;27234.0300
2530.0000;27202.7700
2531.0000;27182.6500
2532.0000;27195.8200
2533.0000;27210.1600
2534.0000;27183.4600
2535.0000;27140.5800
2536.0000;27105.4100
2537.0000;27080.8300
2538.0000;27058.3600
2539.0000;27044.5200
2540.0000;27020.7700
2541.0000;27001.6200
2542.0000;26991.7400
2543.0000;26995.9900
2544.0000;27002.4000
2545.0000;27010.4600
2546.0000;27020.6100
2547.0000;27026.5500
2548.0000;27015.8600
2549.0000;26987.2200
2550.0000;26955.6200
2551.0000;26930.6500
2552.0000;26918.3400
2553.0000;26923.4300
2554.0000;26937.7200
2555.0000;26954.1500
2556.0000;26949.3400
2557.0000;26910.4100
2558.0000;26872.8300
2559.0000;26861.4600
2560.0000;26861.1100
2561.0000;26857.6800
2562.0000;26870.0600
2563.0000;26905.9600
2564.0000;26939.3300
2565.0000;26946.9200
2566.0000;26942.9600
2567.0000;26954.0600
2568.0000;26969.4600
2569.0000;26992.4400
2570.0000;27005.4500
2571.0000;26992.6400
2572.0000;26965.9200
2573.0000;26951.1600
2574.0000;26953.2000
2575.0000;26966.4900
2576.0000;26991.7500
2577.0000;27025.1600
2578.0000;27055.2300
2579.0000;27080.9100
2580.0000;27083.7300
2581.0000;27042.1100
2582.0000;26971.1700
2583.0000;26942.3700
2584.0000;26962.2800
2585.0000;26952.8100
2586.0000;26908.1800
2587.0000;26879.5100
2588.0000;26881.5600
2589.0000;26885.7600
2590.0000;26885.1300
2591.0000;26884.8200
2592.0000;26883.7300
2593.0000;26865.6900
2594.0000;26828.0000
2595.0000;26828.2500
2596.0000;26893.1300
2597.0000;26951.4400
2598.0000;26957.0400
2599.0000;26954.5200
2600.0000;26972.7600
2601.0000;26992.5700
2602.0000;27010.7700
2603.0000;27014.1200
2604.0000;26998.4400
2605.0000;26968.6600
2606.0000;26934.2100
2607.0000;26911.8300
2608.0000;26913.5400
2609.0000;26929.1000
2610.0000;26929.2200
2611.0000;26929.5900
2612.0000;26944.3200
2613.0000;26959.9200
2614.0000;26958.9800
2615.0000;26954.4500
2616.0000;26973.1100
2617.0000;26994.9500
2618.0000;26995.2700
2619.0000;26978.6400
2620.0000;26968.4100
2621.0000;26957.0200
2622.0000;26926.5500
2623.0000;26893.9100
2624.0000;26880.2300
2625.0000;26885.4600
2626.0000;26878.2000
2627.0000;26867.4100
2628.0000;26873.8800
2629.0000;26890.7000
2630.0000;26884.5900
2631.0000;26862.6700
2632.0000;26866.1800
2633.0000;26895.6000
2634.0000;26914.8500
2635.0000;26918.1300
2636.0000;26923.7200
2637.0000;26929.9600
2638.0000;26928.1500
2639.0000;26919.7500
2640.0000;26923.5700
2641.0000;26943.8500
2642.0000;26971.3500
2643.0000;26999.2100
2644.0000;27024.5900
2645.0000;27039.1600
2646.0000;27027.4600
2647.0000;26987.6900
2648.0000;26948.1800
2649.0000;26928.3100
2650.0000;26914.6700
2651.0000;26905.9400
2652.0000;26907.2900
2653.0000;26917.4400
2654.0000;26920.1000
2655.0000;26906.1100
2656.0000;26886.5700
2657.0000;26868.2500
2658.0000;26870.2800
2659.0000;26902.8100
2660.0000;26913.1300
2661.0000;26867.9800
2662.0000;26830.7100
2663.0000;26843.7000
2664.0000;26867.0600
2665.0000;26873.8800
2666.0000;26866.8700
2667.0000;26843.2100
2668.0000;26825.9200
2669.0000;26833.6300
2670.0000;26845.5400
2671.0000;26846.9600
2672.0000;26826.5700
2673.0000;26776.9300
2674.0000;26724.7100
2675.0000;26694.0100
2676.0000;26688.5300
2677.0000;26702.2400
2678.0000;26713.6800
2679.0000;26690.7100
2680.0000;26662.7500
2681.0000;26655.1100
2682.0000;26658.2500
2683.0000;26665.7900
2684.0000;26655.4400
2685.0000;26601.2700
2686.0000;26544.6500
2687.0000;26523.3500
2688.0000;26535.0200
2689.0000;26559.0600
2690.0000;26588.9500
2691.0000;26602.7500
2692.0000;26601.7700
2693.0000;26595.7200
2694.0000;26584.4800
2695.0000;26576.0600
2696.0000;26571.3000
2697.0000;26564.1100
2698.0000;26572.5000
2699.0000;26613.3700
2700.0000;26651.4600
2701.0000;26652.1600
2702.0000;26626.7200
2703.0000;26605.9600
2704.0000;26582.2400
2705.0000;26556.8900
2706.0000;26528.6500
2707.0000;26478.9600
2708.0000;26443.5800
2709.0000;26445.6900
2710.0000;26461.5100
2711.0000;26436.6900
2712.0000;26409.1300
2713.0000;26407.8200
2714.0000;26427.7100
2715.0000;26447.2300
2716.0000;26481.7000
2717.0000;26545.5000
2718.0000;26604.2100
2719.0000;26638.7000
2720.0000;26641.8300
2721.0000;26646.5800
2722.0000;26629.5100
2723.0000;26593.0300
2724.0000;26548.7300
2725.0000;26510.0000
2726.0000;26487.3800
2727.0000;26466.8300
2728.0000;26467.8200
2729.0000;26482.5200
2730.0000;26517.0800
2731.0000;26569.1900
2732.0000;26608.9600
2733.0000;26610.9300
2734.0000;26590.4800
2735.0000;26584.4700
2736.0000;26580.9800
2737.0000;26578.8600
2738.0000;26571.8800
2739.0000;26549.3400
2740.0000;26530.5300
2741.0000;26532.2100
2742.0000;26540.0000
2743.0000;26532.6900
2744.0000;26526.4100
2745.0000;26532.4300
2746.0000;26542.3800
2747.0000;26550.5700
2748.0000;26546.6800
2749.0000;26522.4300
2750.0000;26499.7300
2751.0000;26499.2900
2752.0000;26512.2700
2753.0000;26528.3100
2754.0000;26542.8800
2755.0000;26552.1600
2756.0000;26539.3200
2757.0000;26496.5000
2758.0000;26458.2400
2759.0000;26456.1300
2760.0000;26458.4400
2761.0000;26440.7700
2762.0000;26422.1300
2763.0000;26409.9500
2764.0000;26424.2700
2765.0000;26472.6200
2766.0000;26519.0600
2767.0000;26534.6700
2768.0000;26532.6200
2769.0000;26521.4000
2770.0000;26484.7800
2771.0000;26426.9600
2772.0000;26379.4000
2773.0000;26366.3600
2774.0000;26377.3000
2775.0000;26404.9200
2776.0000;26439.1600
2777.0000;26466.8800
2778.0000;26469.2200
2779.0000;26439.5700
2780.0000;26412.0000
2781.0000;26405.4000
2782.0000;26426.6000
2783.0000;26468.5400
2784.0000;26456.0600
2785.0000;26381.0000
2786.0000;26361.4200
2787.0000;26418.1900
2788.0000;26454.2500
2789.0000;26445.3600
2790.0000;26431.6000
2791.0000;26415.8100
2792.0000;26389.0300
2793.0000;26356.1000
2794.0000;26315.4700
2795.0000;26284.9600
2796.0000;26282.9900
2797.0000;26309.2400
2798.0000;26313.5900
2799.0000;26305.3600
2800.0000;26330.1300
2801.0000;26371.5800
2802.0000;26385.5300
2803.0000;26381.9600
2804.0000;26418.9800
2805.0000;26468.2600
2806.0000;26489.2900
2807.0000;26471.6300
2808.0000;26426.4300
2809.0000;26380.1600
2810.0000;26383.9900
2811.0000;26412.5300
2812.0000;26403.8400
2813.0000;26387.2300
2814.0000;26395.8700
2815.0000;26419.0400
2816.0000;26446.7900
2817.0000;26460.9800
2818.0000;26447.6600
2819.0000;26418.8600
2820.0000;26395.1800
2821.0000;26385.8900
2822.0000;26399.9500
2823.0000;26413.8900
2824.0000;26404.5700
2825.0000;26385.7500
2826.0000;26367.0500
2827.0000;26353.8600
2828.0000;26350.7900
2829.0000;26364.1800
2830.0000;26393.0100
2831.0000;26423.4000
2832.0000;26441.0700
2833.0000;26438.6500
2834.0000;26415.1000
2835.0000;26404.0100
2836.0000;26417.8700
2837.0000;26429.6500
2838.0000;26427.2700
2839.0000;26397.5000
2840.0000;26350.1300
2841.0000;26337.8000
2842.0000;26371.0800
2843.0000;26406.9200
2844.0000;26432.3100
2845.0000;26439.0200
2846.0000;26430.8300
2847.0000;26452.9400
2848.0000;26485.1900
2849.0000;26475.4300
2850.0000;26439.7100
2851.0000;26433.2500
2852.0000;26440.6500
2853.0000;26420.9800
2854.0000;26398.8800
2855.0000;26405.3600
2856.0000;26425.7000
2857.0000;26434.1300
2858.0000;26432.7400
2859.0000;26425.8800
2860.0000;26412.0800
2861.0000;26392.9800
2862.0000;26381.9900
2863.0000;26387.7400
2864.0000;26398.6400
2865.0000;26403.0400
2866.0000;26389.4500
2867.0000;26352.6800
2868.0000;26322.8900
2869.0000;26320.6300
2870.0000;26334.6600
2871.0000;26358.1100
2872.0000;26381.6300
2873.0000;26396.5700
2874.0000;26403.6900
2875.0000;26401.2900
2876.0000;26393.4700
2877.0000;26390.6800
2878.0000;26431.2800
2879.0000;26495.3900
2880.0000;26513.4200
2881.0000;26487.8400
2882.0000;26492.8700
2883.0000;26516.3000
2884.0000;26538.5200
2885.0000;26542.7500
2886.0000;26513.9300
2887.0000;26469.9800
2888.0000;26450.3100
2889.0000;26442.2000
2890.0000;26414.4400
2891.0000;26396.6000
2892.0000;26402.2700
2893.0000;26419.9600
2894.0000;26433.4700
2895.0000;26442.7700
2896.0000;26445.1200
2897.0000;26445.4600
2898.0000;26447.4700
2899.0000;26427.9500
2900.0000;26383.3800
2901.0000;26362.5000
2902.0000;26383.3300
2903.0000;26404.2100
2904.0000;26415.2800
2905.0000;26435.1800
2906.0000;26456.2100
2907.0000;26463.1400
2908.0000;26453.2000
2909.0000;26450.4000
2910.0000;26445.3800
2911.0000;26417.8400
2912.0000;26376.6700
2913.0000;26331.6600
2914.0000;26303.4000
2915.0000;26292.1900
2916.0000;26309.6200
2917.0000;26342.1100
2918.0000;26375.7700
2919.0000;26390.4000
2920.0000;26391.4300
2921.0000;26388.8800
2922.0000;26387.5500
2923.0000;26395.6500
2924.0000;26366.0700
2925.0000;26289.0900
2926.0000;26242.5500
2927.0000;26257.2600
2928.0000;26270.7700
2929.0000;26271.9800
2930.0000;26282.0200
2931.0000;26298.5900
2932.0000;26312.0800
2933.0000;26316.1400
2934.0000;26315.6200
2935.0000;26305.2100
2936.0000;26283.6200
2937.0000;26258.2300
2938.0000;26236.8300
2939.0000;26230.2000
2940.0000;26240.3700
2941.0000;26251.2900
2942.0000;26240.6700
2943.0000;26210.5900
2944.0000;26162.6300
2945.0000;26138.5800
2946.0000;26160.9600
2947.0000;26180.2600
2948.0000;26171.0800
2949.0000;26159.8000
2950.0000;26154.7500
2951.0000;26156.8100
2952.0000;26170.0500
2953.0000;26207.2000
2954.0000;26245.9000
2955.0000;26235.1200
2956.0000;26188.0900
2957.0000;26171.3800
2958.0000;26173.1500
2959.0000;26156.8100
2960.0000;26139.4700
2961.0000;26134.1300
2962.0000;26128.6500
2963.0000;26106.4000
2964.0000;26086.0100
2965.0000;26079.0900
2966.0000;26087.6400
2967.0000;26108.5000
2968.0000;26110.4200
2969.0000;26080.4400
2970.0000;26045.4200
2971.0000;26023.5600
2972.0000;26027.8400
2973.0000;26056.1700
2974.0000;26065.1600
2975.0000;26058.4600
2976.0000;26069.2000
2977.0000;26086.8700
2978.0000;26096.9100
2979.0000;26095.6300
2980.0000;26085.6600
2981.0000;26077.9900
2982.0000;26091.6900
2983.0000;26096.0400
2984.0000;26067.8600
2985.0000;26043.5300
2986.0000;26045.3400
2987.0000;26065.3400
2988.0000;26095.1700
2989.0000;26094.2500
2990.0000;26058.4400
2991.0000;26048.2400
2992.0000;26068.6900
2993.0000;26084.7300
2994.0000;26095.9000
2995.0000;26110.9400
2996.0000;26128.5100
2997.0000;26156.3600
2998.0000;26182.1300
2999.0000;26205.6300
3000.0000;26213.5300
3001.0000;26205.2100
3002.0000;26194.8000
3003.0000;26197.2200
3004.0000;26206.6500
3005.0000;26219.2800
3006.0000;26220.5200
3007.0000;26209.0800
3008.0000;26213.8100
3009.0000;26232.8900
3010.0000;26239.8700
3011.0000;26232.6500
3012.0000;26222.5300
3013.0000;26212.2000
3014.0000;26207.1700
3015.0000;26206.2100
3016.0000;26204.1600
3017.0000;26198.1700
3018.0000;26184.7800
3019.0000;26167.0000
3020.0000;26148.5200
3021.0000;26142.2100
3022.0000;26150.1500
3023.0000;26128.4800
3024.0000;26077.0200
3025.0000;26043.3700
3026.0000;26032.5400
3027.0000;25999.1800
3028.0000;25961.4700
3029.0000;25939.9500
3030.0000;25936.3800
3031.0000;25923.6600
3032.0000;25930.0100
3033.0000;25969.2600
3034.0000;26006.2500
3035.0000;26014.6500
3036.0000;25991.5700
3037.0000;25944.1700
3038.0000;25916.8700
3039.0000;25923.2300
3040.0000;25908.1000
3041.0000;25873.9200
3042.0000;25847.5400
3043.0000;25834.2400
3044.0000;25816.0900
3045.0000;25808.7000
3046.0000;25815.2300
3047.0000;25833.9900
3048.0000;25854.2200
3049.0000;25871.9700
3050.0000;25883.8100
3051.0000;25872.2900
3052.0000;25838.0700
3053.0000;25846.3900
3054.0000;25900.4900
3055.0000;25915.3700
3056.0000;25878.6300
3057.0000;25830.7100
3058.0000;25786.3200
3059.0000;25752.7100
3060.0000;25742.1300
3061.0000;25732.0300
3062.0000;25756.9600
3063.0000;25827.5200
3064.0000;25879.1700
3065.0000;25866.4000
3066.0000;25851.5100
3067.0000;25863.9600
3068.0000;25920.8500
3069.0000;25999.7000
3070.0000;26005.4800
3071.0000;25954.0400
3072.0000;25954.8200
3073.0000;25988.8000
3074.0000;26015.4200
3075.0000;26034.5600
3076.0000;26044.7600
3077.0000;26040.7700
3078.0000;26026.7400
3079.0000;26002.1400
3080.0000;25974.6000
3081.0000;25960.4300
3082.0000;25961.1900
3083.0000;25937.4600
3084.0000;25902.2800
3085.0000;25895.5500
3086.0000;25904.6000
3087.0000;25877.1500
3088.0000;25866.4600
3089.0000;25924.0700
3090.0000;25971.3400
3091.0000;25949.2000
3092.0000;25930.1000
3093.0000;25947.3200
3094.0000;25990.1600
3095.0000;26040.6900
3096.0000;26055.3800
3097.0000;26033.8900
3098.0000;26038.3000
3099.0000;26052.0600
3100.0000;26045.6900
3101.0000;26041.4900
3102.0000;26064.3800
3103.0000;26078.8700
3104.0000;26062.7700
3105.0000;26041.5000
3106.0000;26030.2900
3107.0000;26043.8200
3108.0000;26068.6900
3109.0000;26033.3400
3110.0000;25970.6500
3111.0000;25981.5100
3112.0000;26016.1200
3113.0000;25987.4800
3114.0000;25923.3700
3115.0000;25849.0700
3116.0000;25796.2800
3117.0000;25789.3200
3118.0000;25772.7100
3119.0000;25738.4800
3120.0000;25723.0600
3121.0000;25734.7400
3122.0000;25757.1700
3123.0000;25770.6000
3124.0000;25735.4500
3125.0000;25698.2200
3126.0000;25716.2300
3127.0000;25752.0200
3128.0000;25775.2400
3129.0000;25800.8900
3130.0000;25822.9400
3131.0000;25820.1900
3132.0000;25792.8500
3133.0000;25782.3300
3134.0000;25781.9500
3135.0000;25760.2700
3136.0000;25737.6500
3137.0000;25733.7000
3138.0000;25731.4100
3139.0000;25714.3800
3140.0000;25702.1800
3141.0000;25701.9300
3142.0000;25686.8800
3143.0000;25663.4200
3144.0000;25673.7700
3145.0000;25702.5000
3146.0000;25692.0500
3147.0000;25665.7700
3148.0000;25664.7700
3149.0000;25661.8900
3150.0000;25637.9900
3151.0000;25603.7600
3152.0000;25568.5300
3153.0000;25553.7100
3154.0000;25563.9200
3155.0000;25561.5800
3156.0000;25553.9500
3157.0000;25561.6000
3158.0000;25576.1100
3159.0000;25579.4300
3160.0000;25593.1000
3161.0000;25630.8200
3162.0000;25666.1500
3163.0000;25684.3500
3164.0000;25695.4900
3165.0000;25695.9800
3166.0000;25685.7400
3167.0000;25672.5300
3168.0000;25683.1700
3169.0000;25686.9100
3170.0000;25646.3600
3171.0000;25595.7500
3172.0000;25564.0400
3173.0000;25569.9600
3174.0000;25613.9300
3175.0000;25627.5600
3176.0000;25607.9500
3177.0000;25622.9500
3178.0000;25648.8800
3179.0000;25640.2900
3180.0000;25616.4700
3181.0000;25602.3700
3182.0000;25587.2300
3183.0000;25570.4700
3184.0000;25596.4400
3185.0000;25657.2200
3186.0000;25651.5900
3187.0000;25593.6800
3188.0000;25591.1900
3189.0000;25611.3700
3190.0000;25591.4800
3191.0000;25577.2400
3192.0000;25597.9200
3193.0000;25613.0000
3194.0000;25604.8600
3195.0000;25597.9100
3196.0000;25590.9700
3197.0000;25561.1500
3198.0000;25527.5000
3199.0000;25518.6100
3200.0000;25528.7400
3201.0000;25538.4300
3202.0000;25535.3300
3203.0000;25511.6200
3204.0000;25502.5300
3205.0000;25515.3600
3206.0000;25516.3100
3207.0000;25507.8600
3208.0000;25506.7800
3209.0000;25509.1600
3210.0000;25507.0600
3211.0000;25515.1200
3212.0000;25539.2500
3213.0000;25548.7000
3214.0000;25530.2800
3215.0000;25493.4100
3216.0000;25454.6900
3217.0000;25444.6600
3218.0000;25435.3200
3219.0000;25359.1700
3220.0000;25303.4100
3221.0000;25329.2700
3222.0000;25337.4500
3223.0000;25295.4800
3224.0000;25304.5700
3225.0000;25352.5900
3226.0000;25336.8100
3227.0000;25288.1500
3228.0000;25279.6200
3229.0000;25281.6200
3230.0000;25269.1400
3231.0000;25240.2000
3232.0000;25198.8600
3233.0000;25181.8000
3234.0000;25196.6000
3235.0000;25210.1000
3236.0000;25219.7900
3237.0000;25223.6800
3238.0000;25212.4100
3239.0000;25184.9000
3240.0000;25168.1800
3241.0000;25177.0000
3242.0000;25182.6000
3243.0000;25188.2000
3244.0000;25223.8200
3245.0000;25269.0800
3246.0000;25292.8800
3247.0000;25295.8500
3248.0000;25291.0800
3249.0000;25280.8500
3250.0000;25272.7800
3251.0000;25267.0400
3252.0000;25267.5500
3253.0000;25278.8800
3254.0000;25284.6400
3255.0000;25257.5600
3256.0000;25232.9900
3257.0000;25240.5800
3258.0000;25256.5500
3259.0000;25271.0400
3260.0000;25292.7600
3261.0000;25308.6400
3262.0000;25298.9500
3263.0000;25275.6400
3264.0000;25269.7000
3265.0000;25256.5700
3266.0000;25224.9000
3267.0000;25205.3600
3268.0000;25210.6700
3269.0000;25231.4500
3270.0000;25252.4000
3271.0000;25236.7100
3272.0000;25219.4400
3273.0000;25247.7100
3274.0000;25265.7700
3275.0000;25246.8900
3276.0000;25261.8100
3277.0000;25305.2700
3278.0000;25298.4200
3279.0000;25248.8000
3280.0000;25204.2200
3281.0000;25163.5600
3282.0000;25128.3000
3283.0000;25105.6100
3284.0000;25096.2100
3285.0000;25083.0500
3286.0000;25067.3000
3287.0000;25039.4000
3288.0000;25032.9900
3289.0000;25085.9400
3290.0000;25109.9200
3291.0000;25052.8700
3292.0000;25024.4400
3293.0000;25052.7600
3294.0000;25084.1200
3295.0000;25096.2300
3296.0000;25066.1000
3297.0000;25023.2900
3298.0000;25006.8500
3299.0000;25005.9100
3300.0000;25016.4400
3301.0000;25041.3700
3302.0000;25060.2800
3303.0000;25032.1100
3304.0000;24987.8600
3305.0000;24986.6300
3306.0000;24981.0400
3307.0000;24943.8300
3308.0000;24903.9300
3309.0000;24872.4600
3310.0000;24831.4200
3311.0000;24809.9000
3312.0000;24829.5200
3313.0000;24867.4600
3314.0000;24887.6500
3315.0000;24889.9900
3316.0000;24873.6900
3317.0000;24858.5100
3318.0000;24849.2800
3319.0000;24842.1100
3320.0000;24841.9100
3321.0000;24848.7100
3322.0000;24840.2400
3323.0000;24809.5300
3324.0000;24802.3600
3325.0000;24816.0200
3326.0000;24797.5100
3327.0000;24764.0600
3328.0000;24743.2900
3329.0000;24734.4100
3330.0000;24733.7600
3331.0000;24711.8700
3332.0000;24671.9600
3333.0000;24640.8600
3334.0000;24640.3600
3335.0000;24675.2400
3336.0000;24716.2000
3337.0000;24730.4100
3338.0000;24750.7300
3339.0000;24778.0700
3340.0000;24791.0300
3341.0000;24787.7600
3342.0000;24788.4600
3343.0000;24791.6900
3344.0000;24801.5900
3345.0000;24795.7600
3346.0000;24771.4500
3347.0000;24753.9400
3348.0000;24760.5600
3349.0000;24805.7900
3350.0000;24860.2400
3351.0000;24887.5200
3352.0000;24876.0800
3353.0000;24834.8800
3354.0000;24843.7900
3355.0000;24891.9000
3356.0000;24891.8500
3357.0000;24902.9200
3358.0000;24987.9000
3359.0000;25055.6500
3360.0000;25062.3900
3361.0000;25080.9700
3362.0000;25095.5100
3363.0000;25065.2000
3364.0000;25017.0100
3365.0000;24994.5800
3366.0000;24981.2400
3367.0000;24971.6900
3368.0000;24966.4400
3369.0000;24967.9300
3370.0000;24976.2900
3371.0000;24976.0600
3372.0000;24948.3100
3373.0000;24935.3100
3374.0000;24952.7800
3375.0000;24955.2000
3376.0000;24940.4200
3377.0000;24928.4000
3378.0000;24923.2200
3379.0000;24928.0600
3380.0000;24929.9500
3381.0000;24919.9600
3382.0000;24890.0400
3383.0000;24859.0300
3384.0000;24867.3700
3385.0000;24888.2000
3386.0000;24884.8400
3387.0000;24841.2700
3388.0000;24769.5300
3389.0000;24755.8100
3390.0000;24800.3600
3391.0000;24833.2000
3392.0000;24864.9900
3393.0000;24898.2300
3394.0000;24916.8400
3395.0000;24907.1200
3396.0000;24846.2200
3397.0000;24777.5200
3398.0000;24783.0900
3399.0000;24824.2100
3400.0000;24848.9000
3401.0000;24843.4100
3402.0000;24808.0800
3403.0000;24792.7900
3404.0000;24793.9600
3405.0000;24785.7400
3406.0000;24779.4700
3407.0000;24778.9500
3408.0000;24786.1300
3409.0000;24799.8200
3410.0000;24817.4300
3411.0000;24823.3200
3412.0000;24805.7900
3413.0000;24779.4500
3414.0000;24762.1300
3415.0000;24775.0500
3416.0000;24804.9000
3417.0000;24792.4100
3418.0000;24772.2900
3419.0000;24785.5800
3420.0000;24772.1600
3421.0000;24724.2000
3422.0000;24720.3400
3423.0000;24744.8600
3424.0000;24723.4300
3425.0000;24712.2700
3426.0000;24747.3100
3427.0000;24756.2500
3428.0000;24721.4800
3429.0000;24677.8100
3430.0000;24643.8100
3431.0000;24635.3300
3432.0000;24633.7800
3433.0000;24626.5900
3434.0000;24656.6900
3435.0000;24691.7700
3436.0000;24632.8800
3437.0000;24563.5700
3438.0000;24579.5800
3439.0000;24600.4700
3440.0000;24594.4600
3441.0000;24570.1500
3442.0000;24548.1900
3443.0000;24559.4500
3444.0000;24595.9600
3445.0000;24638.5800
3446.0000;24652.7800
3447.0000;24638.3400
3448.0000;24662.0800
3449.0000;24688.5700
3450.0000;24678.7500
3451.0000;24657.6400
3452.0000;24640.9100
3453.0000;24615.6900
3454.0000;24603.0000
3455.0000;24632.2600
3456.0000;24661.1500
3457.0000;24651.6000
3458.0000;24633.9400
3459.0000;24617.7000
3460.0000;24604.9000
3461.0000;24593.1500
3462.0000;24572.0400
3463.0000;24561.6200
3464.0000;24568.5400
3465.0000;24575.9800
3466.0000;24583.3000
3467.0000;24598.5100
3468.0000;24600.0400
3469.0000;24578.2000
3470.0000;24586.0600
3471.0000;24621.1200
3472.0000;24621.9400
3473.0000;24608.5500
3474.0000;24617.5900
3475.0000;24619.0400
3476.0000;24604.7100
3477.0000;24592.8900
3478.0000;24592.5300
3479.0000;24612.7400
3480.0000;24615.4900
3481.0000;24577.5000
3482.0000;24544.5600
3483.0000;24520.0100
3484.0000;24450.5100
3485.0000;24405.9200
3486.0000;24438.7800
3487.0000;24454.8400
3488.0000;24427.5200
3489.0000;24423.6900
3490.0000;24443.2300
3491.0000;24470.8400
3492.0000;24487.7000
3493.0000;24481.0600
3494.0000;24463.5300
3495.0000;24443.2000
3496.0000;24434.5300
3497.0000;24419.2600
3498.0000;24384.6600
3499.0000;24384.7200
3500.0000;24407.8000
3501.0000;24360.2600
3502.0000;24293.4600
3503.0000;24270.0100
3504.0000;24266.4800
3505.0000;24276.9400
3506.0000;24296.7100
3507.0000;24307.6300
3508.0000;24284.9100
3509.0000;24272.0900
3510.0000;24289.9200
3511.0000;24288.1000
3512.0000;24277.8500
3513.0000;24302.8200
3514.0000;24316.6000
3515.0000;24290.4000
3516.0000;24266.3300
3517.0000;24261.3700
3518.0000;24280.2100
3519.0000;24296.3000
3520.0000;24278.9500
3521.0000;24255.4100
3522.0000;24237.3800
3523.0000;24217.0300
3524.0000;24216.0600
3525.0000;24247.5700
3526.0000;24271.7800
3527.0000;24273.4100
3528.0000;24291.9900
3529.0000;24309.1300
3530.0000;24302.1900
3531.0000;24287.5300
3532.0000;24274.3400
3533.0000;24239.8100
3534.0000;24196.6400
3535.0000;24161.0900
3536.0000;24159.4900
3537.0000;24196.7900
3538.0000;24230.0300
3539.0000;24248.4000
3540.0000;24272.8700
3541.0000;24269.1600
3542.0000;24227.7500
3543.0000;24199.4000
3544.0000;24195.0700
3545.0000;24180.6300
3546.0000;24182.0300
3547.0000;24208.6300
3548.0000;24198.7100
3549.0000;24153.7300
3550.0000;24143.2800
3551.0000;24146.8100
3552.0000;24133.6300
3553.0000;24109.8800
3554.0000;24078.1000
3555.0000;24034.0700
3556.0000;24004.6500
3557.0000;24009.9600
3558.0000;24020.7300
3559.0000;24012.1000
3560.0000;23943.4200
3561.0000;23880.1800
3562.0000;23904.4600
3563.0000;23905.4600
3564.0000;23854.5800
3565.0000;23849.6000
3566.0000;23884.7300
3567.0000;23920.8600
3568.0000;23924.6300
3569.0000;23887.9600
3570.0000;23879.1800
3571.0000;23890.9300
3572.0000;23891.4300
3573.0000;23894.1300
3574.0000;23896.9700
3575.0000;23872.9300
3576.0000;23830.3400
3577.0000;23789.8100
3578.0000;23769.7200
3579.0000;23775.1700
3580.0000;23766.1500
3581.0000;23748.5600
3582.0000;23734.5700
3583.0000;23730.6000
3584.0000;23740.0500
3585.0000;23762.6600
3586.0000;23779.5700
3587.0000;23763.8200
3588.0000;23750.3800
3589.0000;23758.8100
3590.0000;23760.5500
3591.0000;23757.0300
3592.0000;23755.1400
3593.0000;23753.8700
3594.0000;23757.1000
3595.0000;23788.4600
3596.0000;23818.2000
3597.0000;23799.9000
3598.0000;23769.3300
3599.0000;23752.2900
3600.0000;23747.9800
3601.0000;23755.2700
3602.0000;23759.0300
3603.0000;23759.9400
3604.0000;23759.2900
3605.0000;23774.2300
3606.0000;23783.5500
3607.0000;23757.1100
3608.0000;23750.9100
3609.0000;23780.7400
3610.0000;23789.6200
3611.0000;23792.1000
3612.0000;23814.0800
3613.0000;23815.3300
3614.0000;23792.5000
3615.0000;23794.4800
3616.0000;23799.5400
3617.0000;23780.8800
3618.0000;23763.8200
3619.0000;23764.1600
3620.0000;23791.3300
3621.0000;23818.0900
3622.0000;23814.9500
3623.0000;23830.1700
3624.0000;23850.6500
3625.0000;23807.7100
3626.0000;23763.8100
3627.0000;23774.4000
3628.0000;23795.3900
3629.0000;23813.7000
3630.0000;23816.5100
3631.0000;23830.2600
3632.0000;23868.0600
3633.0000;23875.3700
3634.0000;23860.1500
3635.0000;23874.9800
3636.0000;23879.1600
3637.0000;23858.6100
3638.0000;23852.3600
3639.0000;23852.2700
3640.0000;23833.1800
3641.0000;23811.2200
3642.0000;23792.2100
3643.0000;23757.5600
3644.0000;23725.2800
3645.0000;23711.0400
3646.0000;23701.4000
3647.0000;23693.3800
3648.0000;23684.5000
3649.0000;23685.4500
3650.0000;23700.4700
3651.0000;23731.7900
3652.0000;23762.1500
3653.0000;23764.5300
3654.0000;23755.7900
3655.0000;23753.3200
3656.0000;23688.7100
3657.0000;23608.1400
3658.0000;23620.0200
3659.0000;23616.7700
3660.0000;23542.6200
3661.0000;23479.5100
3662.0000;23443.7600
3663.0000;23419.2200
3664.0000;23403.8100
3665.0000;23396.4100
3666.0000;23409.6500
3667.0000;23417.6700
3668.0000;23389.7100
3669.0000;23400.9000
3670.0000;23445.6000
3671.0000;23437.6500
3672.0000;23409.8900
3673.0000;23396.9900
3674.0000;23405.7900
3675.0000;23425.4700
3676.0000;23425.7900
3677.0000;23405.8800
3678.0000;23376.5600
3679.0000;23367.8200
3680.0000;23382.2700
3681.0000;23403.4300
3682.0000;23416.5900
3683.0000;23416.2000
3684.0000;23427.0400
3685.0000;23429.2800
3686.0000;23412.0900
3687.0000;23411.3800
3688.0000;23428.5400
3689.0000;23448.0700
3690.0000;23427.7700
3691.0000;23361.8700
3692.0000;23344.5000
3693.0000;23356.6600
3694.0000;23336.7600
3695.0000;23327.1800
3696.0000;23331.4200
3697.0000;23306.9800
3698.0000;23282.1400
3699.0000;23282.8100
3700.0000;23290.6300
3701.0000;23299.4400
3702.0000;23298.2000
3703.0000;23319.3200
3704.0000;23364.3600
3705.0000;23364.0800
3706.0000;23333.9600
3707.0000;23321.9200
3708.0000;23327.9600
3709.0000;23344.7200
3710.0000;23339.1700
3711.0000;23329.9700
3712.0000;23334.0500
3713.0000;23331.0400
3714.0000;23328.5600
3715.0000;23346.3900
3716.0000;23339.5300
3717.0000;23299.6200
3718.0000;23288.0300
3719.0000;23286.4600
3720.0000;23265.7100
3721.0000;23267.1800
3722.0000;23280.1400
3723.0000;23248.9600
3724.0000;23218.6800
3725.0000;23219.9600
3726.0000;23243.1700
3727.0000;23261.1300
3728.0000;23236.5300
3729.0000;23216.3100
3730.0000;23215.8300
3731.0000;23219.6900
3732.0000;23202.6500
3733.0000;23151.4900
3734.0000;23095.0900
3735.0000;23055.5600
3736.0000;23039.4800
3737.0000;23008.5800
3738.0000;22968.0400
3739.0000;22990.0400
3740.0000;23021.1900
3741.0000;23004.5600
3742.0000;22992.5900
3743.0000;22994.7100
3744.0000;23006.5900
3745.0000;23021.6500
3746.0000;23021.8500
3747.0000;22971.8200
3748.0000;22918.9200
3749.0000;22917.7300
3750.0000;22935.3000
3751.0000;22955.6000
3752.0000;22955.2100
3753.0000;22932.8900
3754.0000;22896.8600
3755.0000;22851.6300
3756.0000;22844.0500
3757.0000;22897.8200
3758.0000;22921.7300
3759.0000;22926.7000
3760.0000;22990.8300
3761.0000;23034.0200
3762.0000;23030.7800
3763.0000;23076.0800
3764.0000;23112.6700
3765.0000;23092.8600
3766.0000;23062.5100
3767.0000;23041.2400
3768.0000;23040.2600
3769.0000;23045.5700
3770.0000;23046.7200
3771.0000;23038.7400
3772.0000;23044.3700
3773.0000;23078.1000
3774.0000;23098.2800
3775.0000;23103.2000
3776.0000;23116.4100
3777.0000;23131.5000
3778.0000;23144.8700
3779.0000;23158.2900
3780.0000;23162.4900
3781.0000;23154.1500
3782.0000;23120.5100
3783.0000;23096.8100
3784.0000;23130.4700
3785.0000;23147.5000
3786.0000;23131.4100
3787.0000;23129.7900
3788.0000;23138.7500
3789.0000;23149.2300
3790.0000;23120.4400
3791.0000;23081.5200
3792.0000;23076.8800
3793.0000;23071.1900
3794.0000;23041.6600
3795.0000;22955.3800
3796.0000;22891.1800
3797.0000;22888.2300
3798.0000;22873.4800
3799.0000;22867.3400
3800.0000;22876.7300
3801.0000;22886.3400
3802.0000;22886.0000
3803.0000;22869.9000
3804.0000;22841.4000
3805.0000;22821.6400
3806.0000;22842.2000
3807.0000;22869.9000
3808.0000;22870.5700
3809.0000;22851.6100
3810.0000;22823.2300
3811.0000;22804.6000
3812.0000;22788.2600
3813.0000;22768.2400
3814.0000;22723.7200
3815.0000;22700.1700
3816.0000;22710.0000
3817.0000;22711.1400
3818.0000;22689.2000
3819.0000;22637.1200
3820.0000;22577.8000
3821.0000;22540.1000
3822.0000;22540.8200
3823.0000;22553.1500
3824.0000;22551.4600
3825.0000;22502.2900
3826.0000;22479.9600
3827.0000;22503.8200
3828.0000;22467.6500
3829.0000;22402.7000
3830.0000;22350.7600
3831.0000;22334.5400
3832.0000;22338.7000
3833.0000;22311.8100
3834.0000;22312.6000
3835.0000;22334.3900
3836.0000;22314.4100
3837.0000;22312.8600
3838.0000;22350.2900
3839.0000;22383.1800
3840.0000;22389.6300
3841.0000;22364.3300
3842.0000;22376.7700
3843.0000;22393.4400
3844.0000;22357.5200
3845.0000;22352.3000
3846.0000;22383.5900
3847.0000;22395.6900
3848.0000;22405.4300
3849.0000;22414.6400
3850.0000;22421.7600
3851.0000;22407.7900
3852.0000;22377.1600
3853.0000;22398.8700
3854.0000;22442.0000
3855.0000;22452.2900
3856.0000;22471.4600
3857.0000;22477.6200
3858.0000;22435.0500
3859.0000;22397.4800
3860.0000;22392.2000
3861.0000;22401.3100
3862.0000;22409.0300
3863.0000;22402.6200
3864.0000;22406.5400
3865.0000;22418.5700
3866.0000;22431.9100
3867.0000;22435.5100
3868.0000;22425.1400
3869.0000;22406.6400
3870.0000;22376.8200
3871.0000;22333.4700
3872.0000;22263.9700
3873.0000;22222.9000
3874.0000;22229.3600
3875.0000;22245.4500
3876.0000;22242.8600
3877.0000;22207.5400
3878.0000;22187.4300
3879.0000;22172.3600
3880.0000;22149.5500
3881.0000;22130.5200
3882.0000;22130.8000
3883.0000;22155.3900
3884.0000;22164.9500
3885.0000;22146.6100
3886.0000;22110.6900
3887.0000;22082.0700
3888.0000;22074.4200
3889.0000;22069.0700
3890.0000;22049.4600
3891.0000;22016.3400
3892.0000;22007.9800
3893.0000;22001.2800
3894.0000;21974.5400
3895.0000;21937.7300
3896.0000;21916.8700
3897.0000;21925.3300
3898.0000;21896.0800
3899.0000;21861.0100
3900.0000;21876.5200
3901.0000;21860.5700
3902.0000;21828.8000
3903.0000;21852.1200
3904.0000;21883.4700
3905.0000;21888.9600
3906.0000;21844.7200
3907.0000;21817.0400
3908.0000;21832.6800
3909.0000;21815.8300
3910.0000;21787.4200
3911.0000;21769.0800
3912.0000;21772.8200
3913.0000;21794.4600
3914.0000;21816.4700
3915.0000;21835.4700
3916.0000;21864.7400
3917.0000;21920.1300
3918.0000;21936.2300
3919.0000;21909.1300
3920.0000;21883.7600
3921.0000;21911.2900
3922.0000;21957.1900
3923.0000;21913.0000
3924.0000;21875.5100
3925.0000;21883.0000
3926.0000;21899.3100
3927.0000;21913.1200
3928.0000;21916.2300
3929.0000;21938.0500
3930.0000;21943.4100
3931.0000;21920.6800
3932.0000;21920.6200
3933.0000;21923.8200
3934.0000;21911.7600
3935.0000;21892.2900
3936.0000;21902.5700
3937.0000;21959.6200
3938.0000;21940.3700
3939.0000;21898.3600
3940.0000;21930.8400
3941.0000;21909.8700
3942.0000;21866.0500
3943.0000;21882.4000
3944.0000;21849.8200
3945.0000;21790.0400
3946.0000;21790.2200
3947.0000;21785.8000
3948.0000;21759.2700
3949.0000;21726.4100
3950.0000;21669.5400
3951.0000;21610.1400
3952.0000;21597.1100
3953.0000;21592.7800
3954.0000;21572.0900
3955.0000;21539.2500
3956.0000;21517.7800
3957.0000;21510.4400
3958.0000;21463.7600
3959.0000;21407.8400
3960.0000;21372.0100
3961.0000;21348.4700
3962.0000;21321.0700
3963.0000;21271.1800
3964.0000;21207.8200
3965.0000;21167.3800
3966.0000;21167.4700
3967.0000;21151.5500
3968.0000;21141.8700
3969.0000;21157.7800
3970.0000;21165.3600
3971.0000;21134.6600
3972.0000;21055.2100
3973.0000;20994.0600
3974.0000;20960.1700
3975.0000;20926.1100
3976.0000;20890.7800
3977.0000;20869.4900
3978.0000;20870.9800
3979.0000;20883.3800
3980.0000;20882.5200
3981.0000;20841.8400
3982.0000;20844.6200
3983.0000;20881.0500
3984.0000;20876.6300
3985.0000;20849.9600
3986.0000;20825.2500
3987.0000;20834.9300
3988.0000;20860.0700
3989.0000;20878.1800
3990.0000;20866.0400
3991.0000;20867.0200
3992.0000;20889.4600
3993.0000;20908.5400
3994.0000;20902.0500
3995.0000;20875.6000
3996.0000;20868.5800
3997.0000;20886.2500
3998.0000;20914.8400
3999.0000;20915.6100
4000.0000;20916.3600
4001.0000;20922.2000
4002.0000;20910.0100
4003.0000;20927.6500
4004.0000;20958.5300
4005.0000;20903.7300
4006.0000;20878.1200
4007.0000;20919.6600
4008.0000;20952.4500
4009.0000;20959.3400
4010.0000;20938.4100
4011.0000;20930.4500
4012.0000;20911.0900
4013.0000;20885.6200
4014.0000;20883.9900
4015.0000;20889.3200
4016.0000;20881.2200
4017.0000;20836.7900
4018.0000;20819.8100
4019.0000;20843.1400
4020.0000;20834.7700
4021.0000;20807.0700
4022.0000;20771.4900
4023.0000;20732.0100
4024.0000;20715.9900
4025.0000;20721.9600
4026.0000;20708.0300
4027.0000;20672.8400
4028.0000;20631.9800
4029.0000;20619.8800
4030.0000;20573.4700
4031.0000;20499.0100
4032.0000;20462.0900
4033.0000;20457.6900
4034.0000;20454.2800
4035.0000;20385.0500
4036.0000;20367.3800
4037.0000;20401.4500
4038.0000;20375.1500
4039.0000;20367.2700
4040.0000;20373.6800
4041.0000;20333.8300
4042.0000;20301.1600
4043.0000;20307.3500
4044.0000;20354.7900
4045.0000;20389.4500
4046.0000;20378.5300
4047.0000;20324.3300
4048.0000;20282.1900
4049.0000;20260.2500
4050.0000;20232.0800
4051.0000;20236.3800
4052.0000;20280.8700
4053.0000;20344.1500
4054.0000;20380.6200
4055.0000;20390.8500
4056.0000;20409.7300
4057.0000;20434.2400
4058.0000;20445.0400
4059.0000;20431.4200
4060.0000;20436.3500
4061.0000;20479.2900
4062.0000;20545.8400
4063.0000;20517.6800
4064.0000;20472.2600
4065.0000;20494.3100
4066.0000;20504.2000
4067.0000;20473.0500
4068.0000;20405.7200
4069.0000;20386.2300
4070.0000;20385.5000
4071.0000;20371.6300
4072.0000;20338.4100
4073.0000;20317.4000
4074.0000;20309.3800
4075.0000;20255.2100
4076.0000;20197.2900
4077.0000;20152.7500
4078.0000;20089.6700
4079.0000;20052.0200
4080.0000;20039.4700
4081.0000;19998.9800
4082.0000;19973.2600
4083.0000;19944.6400
4084.0000;19863.7900
4085.0000;19816.2600
4086.0000;19815.6600
4087.0000;19823.6600
4088.0000;19815.2200
4089.0000;19791.2000
4090.0000;19765.9400
4091.0000;19743.1100
4092.0000;19733.2600
4093.0000;19733.6200
4094.0000;19706.1000
4095.0000;19694.7100
4096.0000;19718.5400
4097.0000;19712.2200
4098.0000;19669.6700
4099.0000;19617.7200
4100.0000;19613.0200
4101.0000;19601.7700
4102.0000;19572.1700
4103.0000;19570.6200
4104.0000;19537.1700
4105.0000;19449.5800
4106.0000;19317.4000
4107.0000;19221.6700
4108.0000;19125.1900
4109.0000;18930.7100
4110.0000;18781.4200
4111.0000;18669.6600
4112.0000;18534.6700
4113.0000;18366.7400
4114.0000;18182.7000
4115.0000;17995.7900
4116.0000;17732.7600
4117.0000;17510.5500
4118.0000;17357.4000
4119.0000;17088.7200
4120.0000;16839.3200
4121.0000;16656.9400
4122.0000;16477.0100
4123.0000;16221.2000
4124.0000;15952.0800
4125.0000;15785.9800
4126.0000;15585.2900
4127.0000;15354.2100
4128.0000;15117.4500
4129.0000;14860.7600
4130.0000;14596.2400
4131.0000;14325.5100
4132.0000;14089.9800
4133.0000;13882.3300
4134.0000;13660.5100
4135.0000;13382.1600
4136.0000;13109.2100
4137.0000;12864.0700
4138.0000;12580.4900
4139.0000;12283.3500
4140.0000;12019.5900
4141.0000;11793.0300
4142.0000;11518.3000
4143.0000;11255.1300
4144.0000;11050.8100
4145.0000;10790.2200
4146.0000;10562.3000
4147.0000;10412.3300
4148.0000;10224.9600
4149.0000;10012.9300
4150.0000;9815.7930
4151.0000;9698.9020
4152.0000;9560.4630
4153.0000;9400.0070
4154.0000;9283.4760
4155.0000;9127.5740
4156.0000;8974.4970
4157.0000;8880.1750
4158.0000;8741.6590
4159.0000;8561.1680
4160.0000;8375.1410
4161.0000;8271.6150
4162.0000;8195.6300
4163.0000;8094.1680
4164.0000;7975.7120
4165.0000;7863.1880
4166.0000;7776.5730
4167.0000;7699.1500
4168.0000;7622.9740
4169.0000;7554.6170
4170.0000;7498.6300
4171.0000;7453.5120
4172.0000;7431.0740
4173.0000;7417.7350
4174.0000;7372.5840
4175.0000;7340.3010
4176.0000;7318.6170
4177.0000;7245.9030
4178.0000;7197.5550
4179.0000;7168.1650
4180.0000;7106.7270
4181.0000;7041.7670
4182.0000;7010.8470
4183.0000;7020.8750
4184.0000;7002.2430
4185.0000;6992.6080
4186.0000;7000.3750
4187.0000;6985.7740
4188.0000;6988.7060
4189.0000;7006.1740
4190.0000;7009.8960
4191.0000;7020.2520
4192.0000;7029.9130
4193.0000;7028.3780
4194.0000;7017.9630
4195.0000;6983.0990
4196.0000;6938.4680
4197.0000;6928.7420
4198.0000;6921.5920
4199.0000;6911.7640
4200.0000;6910.6720
4201.0000;6907.5990
4202.0000;6892.2380
4203.0000;6868.6450
4204.0000;6881.5110
4205.0000;6901.9600
4206.0000;6912.2560
4207.0000;6937.2700
4208.0000;6937.5090
4209.0000;6933.0350
4210.0000;6967.5990
4211.0000;6966.9010
4212.0000;6946.4710
4213.0000;6936.8020
4214.0000;6924.3110
4215.0000;6918.5320
4216.0000;6911.1850
4217.0000;6877.5360
4218.0000;6833.9440
4219.0000;6788.3260
4220.0000;6751.2350
4221.0000;6759.4600
4222.0000;6798.8320
4223.0000;6830.2690
4224.0000;6830.9760
4225.0000;6801.2640
4226.0000;6776.8220
4227.0000;6798.9840
4228.0000;6768.4940
4229.0000;6729.0040
4230.0000;6737.8590
4231.0000;6739.8060
4232.0000;6748.2600
4233.0000;6766.4960
4234.0000;6795.8470
4235.0000;6767.2000
4236.0000;6045.4600
4237.0000;4260.8570
4238.0000;2253.4900
