Raman Shift ; Dark Subtracted #1
-2.0000;11020.5500
-1.0000;10040.9400
0.0000;8806.5870
1.0000;7351.0670
2.0000;5715.6130
3.0000;4113.2710
4.0000;2814.6030
5.0000;1729.7990
6.0000;1010.3030
7.0000;781.7565
8.0000;627.0947
9.0000;539.7755
10.0000;608.0497
11.0000;586.8719
12.0000;380.9621
13.0000;165.8137
14.0000;12.0571
15.0000;-30.5600
16.0000;9.0316
17.0000;48.7793
18.0000;51.9098
19.0000;55.4859
20.0000;56.6997
21.0000;53.6575
22.0000;48.1526
23.0000;42.5071
24.0000;37.8882
25.0000;34.9240
26.0000;33.5301
27.0000;34.0006
28.0000;36.3053
29.0000;38.2796
30.0000;38.3367
31.0000;37.2148
32.0000;35.3523
33.0000;32.4600
34.0000;29.6965
35.0000;28.5047
36.0000;30.5710
37.0000;34.3674
38.0000;37.4485
39.0000;37.5476
40.0000;35.1577
41.0000;31.5318
42.0000;26.4806
43.0000;21.7652
44.0000;19.9364
45.0000;23.7787
46.0000;31.8620
47.0000;39.4437
48.0000;42.2317
49.0000;40.8344
50.0000;37.9871
51.0000;35.9549
52.0000;34.5224
53.0000;34.9970
54.0000;38.2680
55.0000;44.4371
56.0000;52.3271
57.0000;61.0668
58.0000;69.6434
59.0000;77.9987
60.0000;84.7421
61.0000;90.0950
62.0000;100.1951
63.0000;122.4478
64.0000;152.7053
65.0000;187.6666
66.0000;223.6518
67.0000;257.2253
68.0000;296.1934
69.0000;353.2192
70.0000;418.4927
71.0000;487.6262
72.0000;568.5427
73.0000;645.4178
74.0000;714.2222
75.0000;787.3052
76.0000;844.0716
77.0000;896.9641
78.0000;976.0886
79.0000;1064.6360
80.0000;1149.9400
81.0000;1236.6230
82.0000;1307.8690
83.0000;1377.4780
84.0000;1474.9210
85.0000;1584.8320
86.0000;1695.6430
87.0000;1820.2940
88.0000;1937.2230
89.0000;2048.3770
90.0000;2176.3860
91.0000;2300.8060
92.0000;2416.4420
93.0000;2551.9190
94.0000;2684.4460
95.0000;2813.9570
96.0000;2969.5620
97.0000;3130.2830
98.0000;3279.1570
99.0000;3444.2570
100.0000;3602.3160
101.0000;3730.5330
102.0000;3871.5440
103.0000;3999.7430
104.0000;4107.4650
105.0000;4225.8430
106.0000;4337.6430
107.0000;4441.1730
108.0000;4584.5960
109.0000;4743.2800
110.0000;4890.7420
111.0000;5039.1970
112.0000;5166.1540
113.0000;5261.1540
114.0000;5371.2320
115.0000;5479.8230
116.0000;5579.0070
117.0000;5700.1070
118.0000;5831.5690
119.0000;5950.6470
120.0000;6065.1130
121.0000;6157.9400
122.0000;6227.8020
123.0000;6307.4790
124.0000;6387.2980
125.0000;6459.6630
126.0000;6546.5910
127.0000;6639.4700
128.0000;6725.7210
129.0000;6815.4260
130.0000;6897.0700
131.0000;6964.3350
132.0000;7035.9460
133.0000;7102.5420
134.0000;7156.6790
135.0000;7214.8480
136.0000;7269.5130
137.0000;7316.2990
138.0000;7370.7970
139.0000;7428.6590
140.0000;7477.8230
141.0000;7532.3520
142.0000;7585.3540
143.0000;7625.9990
144.0000;7668.6910
145.0000;7702.8570
146.0000;7727.6070
147.0000;7759.5100
148.0000;7791.8570
149.0000;7817.4860
150.0000;7839.2320
151.0000;7852.6950
152.0000;7859.8130
153.0000;7873.8370
154.0000;7893.5290
155.0000;7910.6830
156.0000;7925.5750
157.0000;7933.9180
158.0000;7939.7320
159.0000;7951.2050
160.0000;7967.3360
161.0000;7982.4270
162.0000;7996.5490
163.0000;8006.0360
164.0000;8013.9820
165.0000;8025.9070
166.0000;8040.3880
167.0000;8054.8350
168.0000;8072.7890
169.0000;8090.0750
170.0000;8105.4160
171.0000;8118.5070
172.0000;8127.1030
173.0000;8136.0810
174.0000;8156.4780
175.0000;8184.6990
176.0000;8212.2200
177.0000;8237.9990
178.0000;8255.3890
179.0000;8269.1270
180.0000;8287.5490
181.0000;8306.1550
182.0000;8322.9200
183.0000;8344.3820
184.0000;8364.5510
185.0000;8381.2070
186.0000;8398.1460
187.0000;8409.9820
188.0000;8421.3590
189.0000;8442.6330
190.0000;8465.7220
191.0000;8484.6310
192.0000;8495.2110
193.0000;8494.3630
194.0000;8490.8970
195.0000;8496.7280
196.0000;8507.4460
197.0000;8518.8390
198.0000;8529.6350
199.0000;8537.8040
200.0000;8542.6580
201.0000;8544.7020
202.0000;8542.8880
203.0000;8541.9140
204.0000;8545.2300
205.0000;8552.9300
206.0000;8565.8750
207.0000;8586.7040
208.0000;8611.2850
209.0000;8632.6740
210.0000;8646.8370
211.0000;8651.7380
212.0000;8655.9030
213.0000;8669.9790
214.0000;8684.6850
215.0000;8699.0000
216.0000;8710.5590
217.0000;8719.3030
218.0000;8731.3210
219.0000;8755.1120
220.0000;8781.5170
221.0000;8807.2330
222.0000;8831.5020
223.0000;8849.1650
224.0000;8862.4000
225.0000;8872.1300
226.0000;8877.2070
227.0000;8888.4720
228.0000;8913.8970
229.0000;8943.5560
230.0000;8973.2290
231.0000;8998.6270
232.0000;9019.0280
233.0000;9040.4670
234.0000;9065.7830
235.0000;9086.7430
236.0000;9106.4360
237.0000;9126.2080
238.0000;9140.0200
239.0000;9153.2560
240.0000;9166.3380
241.0000;9174.2930
242.0000;9179.4650
243.0000;9180.6960
244.0000;9181.5590
245.0000;9190.8820
246.0000;9210.6980
247.0000;9233.7880
248.0000;9256.4620
249.0000;9274.8520
250.0000;9286.7660
251.0000;9296.6420
252.0000;9301.0480
253.0000;9299.3050
254.0000;9295.2000
255.0000;9288.3580
256.0000;9283.8920
257.0000;9289.1010
258.0000;9304.1460
259.0000;9321.1660
260.0000;9330.5290
261.0000;9332.3740
262.0000;9336.9120
263.0000;9356.5040
264.0000;9386.7410
265.0000;9417.7860
266.0000;9444.7410
267.0000;9462.0650
268.0000;9473.3550
269.0000;9486.3850
270.0000;9494.6420
271.0000;9502.5220
272.0000;9515.3020
273.0000;9530.2510
274.0000;9550.8300
275.0000;9585.7460
276.0000;9623.2190
277.0000;9654.6000
278.0000;9678.3390
279.0000;9686.7180
280.0000;9689.0240
281.0000;9693.5300
282.0000;9694.4990
283.0000;9699.3870
284.0000;9714.8910
285.0000;9733.4120
286.0000;9749.7450
287.0000;9758.0550
288.0000;9763.8720
289.0000;9778.3780
290.0000;9809.6530
291.0000;9842.3960
292.0000;9869.6000
293.0000;9884.7340
294.0000;9890.9020
295.0000;9900.2420
296.0000;9914.4090
297.0000;9927.2180
298.0000;9940.2550
299.0000;9951.5670
300.0000;9960.9380
301.0000;9974.1930
302.0000;9988.7080
303.0000;9999.6930
304.0000;10004.8000
305.0000;10002.0600
306.0000;10000.2200
307.0000;10011.8900
308.0000;10035.5600
309.0000;10058.7400
310.0000;10073.6400
311.0000;10078.1300
312.0000;10079.5500
313.0000;10087.6200
314.0000;10098.0700
315.0000;10109.2200
316.0000;10122.2500
317.0000;10134.6900
318.0000;10147.6900
319.0000;10167.7200
320.0000;10184.7900
321.0000;10195.4400
322.0000;10195.1700
323.0000;10187.4600
324.0000;10186.1500
325.0000;10203.9700
326.0000;10228.4900
327.0000;10248.7400
328.0000;10255.9200
329.0000;10256.1300
330.0000;10260.2400
331.0000;10271.0500
332.0000;10290.0400
333.0000;10322.5200
334.0000;10370.5100
335.0000;10419.9700
336.0000;10463.3000
337.0000;10488.6300
338.0000;10502.6300
339.0000;10523.6800
340.0000;10549.6000
341.0000;10571.0800
342.0000;10592.2200
343.0000;10608.4100
344.0000;10621.2200
345.0000;10642.6300
346.0000;10666.2900
347.0000;10682.9600
348.0000;10689.6300
349.0000;10684.1000
350.0000;10679.4000
351.0000;10692.2000
352.0000;10714.3600
353.0000;10733.3800
354.0000;10739.2900
355.0000;10736.1500
356.0000;10736.4200
357.0000;10753.2900
358.0000;10775.3900
359.0000;10796.5300
360.0000;10815.5800
361.0000;10824.8300
362.0000;10823.9400
363.0000;10809.7000
364.0000;10789.7300
365.0000;10778.5200
366.0000;10784.4300
367.0000;10800.0700
368.0000;10814.4100
369.0000;10824.1900
370.0000;10835.4000
371.0000;10853.7600
372.0000;10878.9600
373.0000;10901.4600
374.0000;10918.5400
375.0000;10924.9200
376.0000;10927.7500
377.0000;10936.9700
378.0000;10950.0000
379.0000;10966.1800
380.0000;10989.6800
381.0000;11014.9800
382.0000;11040.8700
383.0000;11072.9700
384.0000;11098.9800
385.0000;11117.7000
386.0000;11131.2700
387.0000;11132.5200
388.0000;11131.5100
389.0000;11134.8700
390.0000;11138.9900
391.0000;11147.0800
392.0000;11160.6500
393.0000;11178.0000
394.0000;11201.4600
395.0000;11229.3100
396.0000;11256.3800
397.0000;11279.7900
398.0000;11296.2800
399.0000;11306.1300
400.0000;11319.0600
401.0000;11333.2800
402.0000;11345.3000
403.0000;11358.6100
404.0000;11370.1400
405.0000;11382.5400
406.0000;11402.4300
407.0000;11424.9200
408.0000;11450.5200
409.0000;11483.7300
410.0000;11514.1600
411.0000;11540.0700
412.0000;11563.0500
413.0000;11575.1700
414.0000;11583.4300
415.0000;11595.1400
416.0000;11603.4800
417.0000;11613.3100
418.0000;11628.2200
419.0000;11641.1500
420.0000;11648.7900
421.0000;11647.4700
422.0000;11644.0400
423.0000;11651.1900
424.0000;11671.4300
425.0000;11694.3700
426.0000;11709.8900
427.0000;11713.9700
428.0000;11714.7200
429.0000;11725.1100
430.0000;11741.0800
431.0000;11753.4800
432.0000;11757.2500
433.0000;11751.4500
434.0000;11744.8900
435.0000;11747.1100
436.0000;11754.0300
437.0000;11761.7400
438.0000;11764.7000
439.0000;11767.6400
440.0000;11776.5000
441.0000;11795.7000
442.0000;11819.1300
443.0000;11842.0900
444.0000;11862.8600
445.0000;11878.0700
446.0000;11891.6300
447.0000;11901.5600
448.0000;11908.1000
449.0000;11919.2100
450.0000;11933.4800
451.0000;11948.4400
452.0000;11966.5000
453.0000;11983.9900
454.0000;11999.1500
455.0000;12014.5500
456.0000;12026.1500
457.0000;12038.6900
458.0000;12060.3400
459.0000;12083.4600
460.0000;12105.4900
461.0000;12129.2600
462.0000;12147.6900
463.0000;12164.9400
464.0000;12182.5300
465.0000;12197.3000
466.0000;12215.9000
467.0000;12238.0700
468.0000;12264.6000
469.0000;12303.2600
470.0000;12354.4700
471.0000;12405.2300
472.0000;12453.2200
473.0000;12488.3800
474.0000;12515.4500
475.0000;12554.5400
476.0000;12591.3300
477.0000;12618.9600
478.0000;12644.9700
479.0000;12655.5200
480.0000;12654.3000
481.0000;12650.5400
482.0000;12636.8700
483.0000;12621.5900
484.0000;12610.1500
485.0000;12601.7000
486.0000;12594.5300
487.0000;12588.3000
488.0000;12586.4900
489.0000;12587.9300
490.0000;12593.2800
491.0000;12600.4700
492.0000;12605.6500
493.0000;12607.7400
494.0000;12607.9200
495.0000;12606.6000
496.0000;12604.3100
497.0000;12605.1700
498.0000;12613.7800
499.0000;12627.7600
500.0000;12642.0000
501.0000;12652.8800
502.0000;12659.8600
503.0000;12667.0800
504.0000;12679.9100
505.0000;12688.8300
506.0000;12689.5300
507.0000;12678.3100
508.0000;12661.1300
509.0000;12648.4100
510.0000;12643.3100
511.0000;12645.9400
512.0000;12654.6700
513.0000;12670.3300
514.0000;12688.8000
515.0000;12705.5800
516.0000;12718.2700
517.0000;12729.0300
518.0000;12742.2000
519.0000;12752.3200
520.0000;12760.8600
521.0000;12769.8400
522.0000;12776.6000
523.0000;12785.2700
524.0000;12798.3000
525.0000;12811.4800
526.0000;12826.7900
527.0000;12843.4000
528.0000;12856.0500
529.0000;12861.2700
530.0000;12856.6000
531.0000;12857.5000
532.0000;12884.0000
533.0000;12931.0300
534.0000;12979.8100
535.0000;13013.1500
536.0000;13028.4900
537.0000;13038.1000
538.0000;13061.0600
539.0000;13078.8300
540.0000;13092.5500
541.0000;13100.8100
542.0000;13104.7400
543.0000;13114.6800
544.0000;13133.2800
545.0000;13156.5300
546.0000;13188.2200
547.0000;13222.9200
548.0000;13251.2600
549.0000;13270.6200
550.0000;13273.2700
551.0000;13268.5700
552.0000;13269.6100
553.0000;13271.6600
554.0000;13276.7000
555.0000;13287.4700
556.0000;13302.2500
557.0000;13318.8100
558.0000;13336.4900
559.0000;13353.2500
560.0000;13370.5800
561.0000;13388.0400
562.0000;13401.6200
563.0000;13413.2300
564.0000;13420.4100
565.0000;13424.3300
566.0000;13429.9900
567.0000;13436.0100
568.0000;13444.6300
569.0000;13462.8500
570.0000;13484.4600
571.0000;13500.6700
572.0000;13509.6200
573.0000;13507.4600
574.0000;13500.0800
575.0000;13487.8500
576.0000;13477.3700
577.0000;13479.7900
578.0000;13500.3400
579.0000;13525.7100
580.0000;13539.2500
581.0000;13537.9200
582.0000;13530.7700
583.0000;13528.7300
584.0000;13529.8300
585.0000;13533.8000
586.0000;13541.1100
587.0000;13551.1200
588.0000;13563.5100
589.0000;13578.2700
590.0000;13591.4400
591.0000;13601.3400
592.0000;13607.4500
593.0000;13606.3000
594.0000;13599.7700
595.0000;13587.8000
596.0000;13574.6400
597.0000;13564.9400
598.0000;13561.6800
599.0000;13567.5200
600.0000;13586.1400
601.0000;13612.3300
602.0000;13633.7000
603.0000;13636.5700
604.0000;13628.0000
605.0000;13624.4400
606.0000;13636.3600
607.0000;13652.8300
608.0000;13662.8100
609.0000;13661.3300
610.0000;13664.9500
611.0000;13692.2100
612.0000;13742.7200
613.0000;13795.2500
614.0000;13839.5900
615.0000;13867.2900
616.0000;13888.8400
617.0000;13921.0800
618.0000;13949.5000
619.0000;13982.3100
620.0000;14028.1400
621.0000;14070.0300
622.0000;14110.9500
623.0000;14143.6500
624.0000;14167.3500
625.0000;14200.1000
626.0000;14234.8400
627.0000;14264.0900
628.0000;14295.4100
629.0000;14318.3800
630.0000;14336.4600
631.0000;14365.2100
632.0000;14387.1100
633.0000;14400.4300
634.0000;14405.5500
635.0000;14397.8100
636.0000;14386.0700
637.0000;14374.0500
638.0000;14356.3700
639.0000;14328.7700
640.0000;14295.2900
641.0000;14271.1700
642.0000;14264.7600
643.0000;14279.7100
644.0000;14298.2200
645.0000;14300.3400
646.0000;14295.9400
647.0000;14292.6700
648.0000;14294.7700
649.0000;14300.8600
650.0000;14311.6500
651.0000;14328.1100
652.0000;14342.8700
653.0000;14348.6500
654.0000;14343.3100
655.0000;14338.4300
656.0000;14348.0700
657.0000;14367.3500
658.0000;14385.6000
659.0000;14394.9700
660.0000;14397.0600
661.0000;14399.5800
662.0000;14406.9300
663.0000;14414.8900
664.0000;14426.1400
665.0000;14440.4700
666.0000;14447.6000
667.0000;14436.9200
668.0000;14410.5300
669.0000;14388.7300
670.0000;14396.1600
671.0000;14425.0700
672.0000;14450.9100
673.0000;14453.6800
674.0000;14442.9600
675.0000;14432.2600
676.0000;14427.8600
677.0000;14426.3200
678.0000;14427.5700
679.0000;14432.1700
680.0000;14436.5200
681.0000;14434.7000
682.0000;14428.3500
683.0000;14425.8800
684.0000;14432.9800
685.0000;14448.8700
686.0000;14470.3800
687.0000;14496.5300
688.0000;14521.4000
689.0000;14542.8000
690.0000;14556.9400
691.0000;14561.6500
692.0000;14561.2000
693.0000;14554.3700
694.0000;14552.2900
695.0000;14569.5100
696.0000;14600.6700
697.0000;14633.0100
698.0000;14654.9100
699.0000;14670.5800
700.0000;14694.6600
701.0000;14734.7100
702.0000;14773.8700
703.0000;14808.3700
704.0000;14828.3600
705.0000;14836.8800
706.0000;14844.9400
707.0000;14847.4600
708.0000;14852.2500
709.0000;14871.7500
710.0000;14896.6800
711.0000;14920.5300
712.0000;14937.9700
713.0000;14950.4700
714.0000;14969.9000
715.0000;14996.0500
716.0000;15017.1400
717.0000;15028.4500
718.0000;15025.9900
719.0000;15020.7700
720.0000;15025.8600
721.0000;15037.3300
722.0000;15054.9400
723.0000;15080.2100
724.0000;15104.3700
725.0000;15120.9200
726.0000;15124.3100
727.0000;15118.8100
728.0000;15115.6700
729.0000;15115.1200
730.0000;15120.1500
731.0000;15137.0900
732.0000;15161.7700
733.0000;15185.2700
734.0000;15201.3000
735.0000;15207.4700
736.0000;15209.4900
737.0000;15208.6800
738.0000;15204.3000
739.0000;15201.2700
740.0000;15200.6000
741.0000;15204.9800
742.0000;15217.6400
743.0000;15236.5000
744.0000;15255.1000
745.0000;15272.2500
746.0000;15281.2400
747.0000;15283.4800
748.0000;15277.3400
749.0000;15267.0900
750.0000;15262.5100
751.0000;15266.0200
752.0000;15274.6700
753.0000;15284.2600
754.0000;15295.3400
755.0000;15308.7000
756.0000;15327.7300
757.0000;15344.3000
758.0000;15354.2600
759.0000;15352.7300
760.0000;15345.1200
761.0000;15344.8100
762.0000;15353.8400
763.0000;15361.5300
764.0000;15356.8400
765.0000;15343.3700
766.0000;15334.8000
767.0000;15344.9900
768.0000;15364.9500
769.0000;15381.5200
770.0000;15384.6800
771.0000;15383.1200
772.0000;15388.8300
773.0000;15402.4000
774.0000;15414.6200
775.0000;15417.3900
776.0000;15411.4600
777.0000;15407.3000
778.0000;15413.5000
779.0000;15426.0800
780.0000;15442.4500
781.0000;15461.6400
782.0000;15479.0700
783.0000;15494.1400
784.0000;15502.6400
785.0000;15509.3800
786.0000;15524.6500
787.0000;15542.1900
788.0000;15554.8200
789.0000;15559.2400
790.0000;15556.7400
791.0000;15557.7600
792.0000;15565.7900
793.0000;15580.1200
794.0000;15601.9500
795.0000;15630.3800
796.0000;15658.9000
797.0000;15690.5700
798.0000;15714.8500
799.0000;15730.1600
800.0000;15740.7800
801.0000;15738.6800
802.0000;15731.5900
803.0000;15721.0600
804.0000;15712.3700
805.0000;15717.6900
806.0000;15736.2800
807.0000;15754.5900
808.0000;15755.1600
809.0000;15746.2400
810.0000;15746.4400
811.0000;15768.2800
812.0000;15799.6500
813.0000;15827.9100
814.0000;15847.9900
815.0000;15859.3200
816.0000;15866.5300
817.0000;15866.6300
818.0000;15868.7000
819.0000;15885.9600
820.0000;15908.7300
821.0000;15928.1400
822.0000;15937.4300
823.0000;15942.0400
824.0000;15953.8000
825.0000;15971.5400
826.0000;15989.2800
827.0000;16005.2200
828.0000;16015.1200
829.0000;16022.8400
830.0000;16034.4000
831.0000;16041.6800
832.0000;16044.6800
833.0000;16041.9900
834.0000;16037.3400
835.0000;16038.7400
836.0000;16045.7900
837.0000;16054.2000
838.0000;16059.9900
839.0000;16063.5100
840.0000;16067.3200
841.0000;16073.5500
842.0000;16079.2300
843.0000;16085.2200
844.0000;16090.4000
845.0000;16091.6900
846.0000;16085.1500
847.0000;16073.2700
848.0000;16067.5700
849.0000;16079.0000
850.0000;16099.3600
851.0000;16113.9800
852.0000;16114.1600
853.0000;16110.1100
854.0000;16114.5500
855.0000;16126.7500
856.0000;16141.5600
857.0000;16156.3400
858.0000;16168.1200
859.0000;16177.5000
860.0000;16185.2500
861.0000;16188.3800
862.0000;16191.5500
863.0000;16194.3900
864.0000;16193.7000
865.0000;16188.6900
866.0000;16179.6500
867.0000;16170.8200
868.0000;16162.2600
869.0000;16159.7900
870.0000;16166.6700
871.0000;16185.0500
872.0000;16209.1200
873.0000;16231.0900
874.0000;16247.2900
875.0000;16261.1500
876.0000;16279.0800
877.0000;16294.8200
878.0000;16310.6500
879.0000;16328.2300
880.0000;16342.7400
881.0000;16358.1600
882.0000;16371.9900
883.0000;16384.0700
884.0000;16399.4800
885.0000;16414.0000
886.0000;16429.8700
887.0000;16450.8900
888.0000;16470.4900
889.0000;16490.6800
890.0000;16509.2100
891.0000;16523.9800
892.0000;16536.7900
893.0000;16546.2100
894.0000;16562.7000
895.0000;16602.3400
896.0000;16647.1800
897.0000;16684.9200
898.0000;16705.6600
899.0000;16714.2000
900.0000;16727.8500
901.0000;16743.3100
902.0000;16762.7600
903.0000;16796.6100
904.0000;16835.0500
905.0000;16870.8300
906.0000;16901.0600
907.0000;16921.1100
908.0000;16940.9500
909.0000;16956.4900
910.0000;16969.8000
911.0000;16993.4900
912.0000;17018.9600
913.0000;17041.3600
914.0000;17060.4400
915.0000;17072.4000
916.0000;17086.0800
917.0000;17100.6400
918.0000;17112.1300
919.0000;17123.6900
920.0000;17131.3100
921.0000;17136.8700
922.0000;17143.4900
923.0000;17148.6000
924.0000;17155.5600
925.0000;17164.6000
926.0000;17175.4400
927.0000;17192.0900
928.0000;17211.0100
929.0000;17225.1000
930.0000;17234.3500
931.0000;17234.2300
932.0000;17229.9800
933.0000;17222.9500
934.0000;17216.2400
935.0000;17215.4400
936.0000;17222.2600
937.0000;17235.0800
938.0000;17253.7500
939.0000;17274.5300
940.0000;17290.6300
941.0000;17297.5800
942.0000;17300.2600
943.0000;17310.2700
944.0000;17326.1100
945.0000;17343.9000
946.0000;17363.5800
947.0000;17379.9700
948.0000;17393.9400
949.0000;17404.1300
950.0000;17409.0000
951.0000;17412.6700
952.0000;17414.7000
953.0000;17424.1700
954.0000;17456.1200
955.0000;17497.2400
956.0000;17533.2400
957.0000;17552.6400
958.0000;17555.8000
959.0000;17554.0200
960.0000;17546.1100
961.0000;17538.5000
962.0000;17543.1100
963.0000;17556.2800
964.0000;17571.4500
965.0000;17582.3000
966.0000;17593.0500
967.0000;17610.1700
968.0000;17632.5400
969.0000;17649.9900
970.0000;17656.4100
971.0000;17653.3800
972.0000;17658.4700
973.0000;17682.5100
974.0000;17714.3300
975.0000;17747.9500
976.0000;17775.6800
977.0000;17799.4500
978.0000;17827.1700
979.0000;17848.4200
980.0000;17863.4000
981.0000;17872.0000
982.0000;17875.1100
983.0000;17885.7200
984.0000;17904.5200
985.0000;17926.3200
986.0000;17954.3400
987.0000;17980.1100
988.0000;18003.5200
989.0000;18023.2000
990.0000;18033.5200
991.0000;18041.5500
992.0000;18044.2400
993.0000;18039.6000
994.0000;18027.2700
995.0000;18012.2300
996.0000;18009.8500
997.0000;18028.6300
998.0000;18061.1600
999.0000;18092.4700
1000.0000;18119.2000
1001.0000;18146.8600
1002.0000;18189.0500
1003.0000;18229.4600
1004.0000;18258.1300
1005.0000;18267.6100
1006.0000;18263.0300
1007.0000;18267.3700
1008.0000;18278.9600
1009.0000;18290.7600
1010.0000;18299.5700
1011.0000;18305.4100
1012.0000;18315.4200
1013.0000;18332.9700
1014.0000;18349.0900
1015.0000;18359.6600
1016.0000;18361.7300
1017.0000;18364.7100
1018.0000;18380.4600
1019.0000;18400.3400
1020.0000;18417.2100
1021.0000;18425.4900
1022.0000;18432.5300
1023.0000;18453.6400
1024.0000;18482.9400
1025.0000;18506.5600
1026.0000;18516.1800
1027.0000;18513.8500
1028.0000;18515.9800
1029.0000;18527.5100
1030.0000;18539.8200
1031.0000;18549.6200
1032.0000;18555.6500
1033.0000;18561.3000
1034.0000;18571.2100
1035.0000;18579.7900
1036.0000;18586.0800
1037.0000;18588.6800
1038.0000;18590.5900
1039.0000;18596.9400
1040.0000;18606.2500
1041.0000;18619.3200
1042.0000;18640.5400
1043.0000;18655.4100
1044.0000;18651.7100
1045.0000;18624.9000
1046.0000;18599.3500
1047.0000;18599.1500
1048.0000;18619.6300
1049.0000;18644.0100
1050.0000;18662.9900
1051.0000;18678.1100
1052.0000;18690.0700
1053.0000;18696.2300
1054.0000;18701.5900
1055.0000;18713.7400
1056.0000;18728.7900
1057.0000;18749.1600
1058.0000;18774.3400
1059.0000;18799.8800
1060.0000;18829.4600
1061.0000;18854.7200
1062.0000;18870.8500
1063.0000;18875.7300
1064.0000;18871.8600
1065.0000;18880.6900
1066.0000;18907.1900
1067.0000;18933.5800
1068.0000;18945.4900
1069.0000;18944.4500
1070.0000;18949.3800
1071.0000;18974.2400
1072.0000;19003.9300
1073.0000;19028.3700
1074.0000;19042.0200
1075.0000;19054.3800
1076.0000;19082.9900
1077.0000;19112.3800
1078.0000;19133.3400
1079.0000;19138.8800
1080.0000;19134.7600
1081.0000;19136.0400
1082.0000;19142.7500
1083.0000;19157.0900
1084.0000;19185.1700
1085.0000;19217.5300
1086.0000;19246.3600
1087.0000;19264.8800
1088.0000;19275.6000
1089.0000;19286.5200
1090.0000;19295.2100
1091.0000;19314.9000
1092.0000;19357.4200
1093.0000;19401.4900
1094.0000;19430.8600
1095.0000;19436.5800
1096.0000;19437.3400
1097.0000;19468.8300
1098.0000;19500.8900
1099.0000;19505.5200
1100.0000;19464.2800
1101.0000;19414.0200
1102.0000;19400.2600
1103.0000;19426.6400
1104.0000;19459.4300
1105.0000;19471.6400
1106.0000;19476.1800
1107.0000;19484.4800
1108.0000;19497.0900
1109.0000;19510.0800
1110.0000;19526.1000
1111.0000;19540.1000
1112.0000;19550.3100
1113.0000;19557.2400
1114.0000;19556.7200
1115.0000;19551.4100
1116.0000;19541.1100
1117.0000;19530.3300
1118.0000;19520.5100
1119.0000;19517.3400
1120.0000;19524.8800
1121.0000;19545.3800
1122.0000;19569.0400
1123.0000;19581.6700
1124.0000;19583.7300
1125.0000;19587.9900
1126.0000;19606.4500
1127.0000;19621.5400
1128.0000;19620.4200
1129.0000;19599.6800
1130.0000;19575.5300
1131.0000;19565.2000
1132.0000;19563.4700
1133.0000;19556.3400
1134.0000;19537.4900
1135.0000;19522.8600
1136.0000;19520.9000
1137.0000;19533.2900
1138.0000;19549.0700
1139.0000;19559.2400
1140.0000;19567.2700
1141.0000;19578.6300
1142.0000;19590.9500
1143.0000;19598.6200
1144.0000;19599.1100
1145.0000;19592.4200
1146.0000;19588.0400
1147.0000;19591.9900
1148.0000;19591.3400
1149.0000;19571.1700
1150.0000;19537.1900
1151.0000;19513.0100
1152.0000;19511.1500
1153.0000;19528.4400
1154.0000;19554.0500
1155.0000;19582.4200
1156.0000;19597.2300
1157.0000;19575.4300
1158.0000;19533.0500
1159.0000;19512.8600
1160.0000;19535.1800
1161.0000;19573.5000
1162.0000;19602.1000
1163.0000;19616.9100
1164.0000;19623.2200
1165.0000;19620.8900
1166.0000;19614.8500
1167.0000;19623.4400
1168.0000;19647.6900
1169.0000;19677.2500
1170.0000;19705.0800
1171.0000;19726.6600
1172.0000;19743.3500
1173.0000;19752.2500
1174.0000;19755.8100
1175.0000;19764.7700
1176.0000;19775.6400
1177.0000;19789.5900
1178.0000;19809.0000
1179.0000;19825.9000
1180.0000;19834.7300
1181.0000;19832.8900
1182.0000;19832.1000
1183.0000;19849.9500
1184.0000;19869.7900
1185.0000;19877.8200
1186.0000;19866.4400
1187.0000;19852.6000
1188.0000;19853.4100
1189.0000;19866.1800
1190.0000;19881.9000
1191.0000;19895.7400
1192.0000;19911.2200
1193.0000;19933.7700
1194.0000;19959.4100
1195.0000;19981.4500
1196.0000;19999.1500
1197.0000;20006.5700
1198.0000;20012.3800
1199.0000;20014.8300
1200.0000;20012.4800
1201.0000;20008.7600
1202.0000;20003.1700
1203.0000;20000.0400
1204.0000;20001.5900
1205.0000;20005.9700
1206.0000;20008.1400
1207.0000;20011.1300
1208.0000;20021.6600
1209.0000;20044.5000
1210.0000;20069.9800
1211.0000;20090.3700
1212.0000;20101.3600
1213.0000;20106.0300
1214.0000;20110.5500
1215.0000;20111.4800
1216.0000;20116.7600
1217.0000;20127.0200
1218.0000;20139.2100
1219.0000;20152.6800
1220.0000;20164.2700
1221.0000;20174.9800
1222.0000;20183.9100
1223.0000;20190.2700
1224.0000;20199.3600
1225.0000;20207.4500
1226.0000;20213.4300
1227.0000;20217.7400
1228.0000;20218.8900
1229.0000;20220.5000
1230.0000;20221.8500
1231.0000;20222.5400
1232.0000;20223.6100
1233.0000;20223.9300
1234.0000;20222.9500
1235.0000;20220.6300
1236.0000;20220.8700
1237.0000;20225.7100
1238.0000;20235.8700
1239.0000;20251.5900
1240.0000;20272.2600
1241.0000;20291.0500
1242.0000;20306.3900
1243.0000;20312.0200
1244.0000;20308.8900
1245.0000;20295.5700
1246.0000;20282.6400
1247.0000;20288.8100
1248.0000;20313.2900
1249.0000;20335.8500
1250.0000;20340.5500
1251.0000;20335.3300
1252.0000;20334.0200
1253.0000;20338.2900
1254.0000;20346.1900
1255.0000;20360.9900
1256.0000;20375.5900
1257.0000;20383.9600
1258.0000;20382.1300
1259.0000;20374.8100
1260.0000;20368.5700
1261.0000;20363.9300
1262.0000;20364.0500
1263.0000;20370.7000
1264.0000;20383.0500
1265.0000;20397.8300
1266.0000;20413.1900
1267.0000;20428.0200
1268.0000;20441.7500
1269.0000;20450.5600
1270.0000;20457.5700
1271.0000;20460.4200
1272.0000;20462.6900
1273.0000;20469.6200
1274.0000;20476.8700
1275.0000;20482.1100
1276.0000;20484.7300
1277.0000;20493.8900
1278.0000;20519.3000
1279.0000;20552.2900
1280.0000;20585.8700
1281.0000;20611.4600
1282.0000;20631.0400
1283.0000;20654.1500
1284.0000;20671.5400
1285.0000;20689.1600
1286.0000;20708.4100
1287.0000;20721.4100
1288.0000;20731.5900
1289.0000;20732.9600
1290.0000;20729.3100
1291.0000;20720.7100
1292.0000;20716.9200
1293.0000;20731.7100
1294.0000;20763.7700
1295.0000;20802.1800
1296.0000;20838.7100
1297.0000;20865.2400
1298.0000;20881.5400
1299.0000;20880.7900
1300.0000;20876.8000
1301.0000;20888.0000
1302.0000;20899.5900
1303.0000;20903.2600
1304.0000;20897.0200
1305.0000;20895.1600
1306.0000;20914.3800
1307.0000;20940.6000
1308.0000;20958.9400
1309.0000;20962.1200
1310.0000;20957.1700
1311.0000;20952.9700
1312.0000;20948.8400
1313.0000;20951.9700
1314.0000;20965.3600
1315.0000;20979.3100
1316.0000;20983.0300
1317.0000;20979.5300
1318.0000;20982.0400
1319.0000;20996.4800
1320.0000;21013.6600
1321.0000;21023.3700
1322.0000;21027.8900
1323.0000;21040.8300
1324.0000;21071.6200
1325.0000;21101.7900
1326.0000;21119.0400
1327.0000;21120.5900
1328.0000;21128.5000
1329.0000;21160.9600
1330.0000;21190.7200
1331.0000;21191.1900
1332.0000;21162.9100
1333.0000;21147.5200
1334.0000;21181.1600
1335.0000;21228.6500
1336.0000;21248.3400
1337.0000;21234.4600
1338.0000;21217.0100
1339.0000;21220.8200
1340.0000;21232.9500
1341.0000;21247.1700
1342.0000;21259.9800
1343.0000;21265.5000
1344.0000;21258.4000
1345.0000;21244.4300
1346.0000;21237.8200
1347.0000;21243.4700
1348.0000;21253.6800
1349.0000;21267.1300
1350.0000;21275.6000
1351.0000;21266.7800
1352.0000;21236.0200
1353.0000;21206.9800
1354.0000;21204.6100
1355.0000;21218.6400
1356.0000;21220.4400
1357.0000;21201.3900
1358.0000;21181.4300
1359.0000;21176.7000
1360.0000;21184.9000
1361.0000;21193.4800
1362.0000;21198.3100
1363.0000;21202.6400
1364.0000;21206.6100
1365.0000;21210.7400
1366.0000;21219.0100
1367.0000;21232.3600
1368.0000;21248.2000
1369.0000;21268.1700
1370.0000;21287.2100
1371.0000;21305.4800
1372.0000;21321.5100
1373.0000;21331.0300
1374.0000;21337.4800
1375.0000;21338.6900
1376.0000;21345.8100
1377.0000;21365.7600
1378.0000;21381.7900
1379.0000;21381.5300
1380.0000;21365.9600
1381.0000;21353.2900
1382.0000;21352.6500
1383.0000;21363.5400
1384.0000;21385.3200
1385.0000;21416.1400
1386.0000;21445.8300
1387.0000;21467.9300
1388.0000;21478.7100
1389.0000;21482.2900
1390.0000;21477.4500
1391.0000;21481.3800
1392.0000;21506.2100
1393.0000;21533.7200
1394.0000;21553.5800
1395.0000;21558.9900
1396.0000;21553.8200
1397.0000;21538.7700
1398.0000;21523.2100
1399.0000;21522.5900
1400.0000;21538.8900
1401.0000;21563.4500
1402.0000;21589.7200
1403.0000;21617.6100
1404.0000;21646.9900
1405.0000;21673.1900
1406.0000;21705.2700
1407.0000;21748.2800
1408.0000;21790.9800
1409.0000;21841.3000
1410.0000;21883.6800
1411.0000;21911.3900
1412.0000;21921.3800
1413.0000;21913.7500
1414.0000;21908.8700
1415.0000;21906.9300
1416.0000;21919.6000
1417.0000;21961.1200
1418.0000;21996.4400
1419.0000;21987.8200
1420.0000;21936.9400
1421.0000;21894.4000
1422.0000;21888.3800
1423.0000;21901.0600
1424.0000;21905.5400
1425.0000;21909.9500
1426.0000;21926.9300
1427.0000;21961.6800
1428.0000;22001.9800
1429.0000;22040.8600
1430.0000;22066.9900
1431.0000;22085.8200
1432.0000;22098.8500
1433.0000;22100.6100
1434.0000;22101.2000
1435.0000;22097.6600
1436.0000;22096.1100
1437.0000;22100.5000
1438.0000;22107.9900
1439.0000;22118.1800
1440.0000;22128.1300
1441.0000;22134.0500
1442.0000;22132.6800
1443.0000;22128.5100
1444.0000;22130.6900
1445.0000;22135.2200
1446.0000;22134.4400
1447.0000;22125.2100
1448.0000;22113.8000
1449.0000;22105.4900
1450.0000;22102.0500
1451.0000;22100.0500
1452.0000;22098.6900
1453.0000;22103.5500
1454.0000;22117.0400
1455.0000;22136.1000
1456.0000;22155.0400
1457.0000;22168.5300
1458.0000;22173.7500
1459.0000;22168.9000
1460.0000;22158.3300
1461.0000;22160.4600
1462.0000;22181.5000
1463.0000;22202.4500
1464.0000;22206.0600
1465.0000;22201.5400
1466.0000;22213.8300
1467.0000;22245.0700
1468.0000;22260.5000
1469.0000;22228.3500
1470.0000;22174.0400
1471.0000;22140.8600
1472.0000;22143.8100
1473.0000;22157.2700
1474.0000;22152.3200
1475.0000;22151.8000
1476.0000;22170.3300
1477.0000;22206.8600
1478.0000;22241.9900
1479.0000;22256.7600
1480.0000;22262.8500
1481.0000;22289.6500
1482.0000;22329.5100
1483.0000;22351.5100
1484.0000;22338.5400
1485.0000;22307.2200
1486.0000;22287.4600
1487.0000;22282.7400
1488.0000;22285.5300
1489.0000;22292.0900
1490.0000;22306.4300
1491.0000;22328.1800
1492.0000;22351.4700
1493.0000;22361.7900
1494.0000;22348.8200
1495.0000;22337.0000
1496.0000;22361.0200
1497.0000;22404.7500
1498.0000;22435.4600
1499.0000;22434.2200
1500.0000;22420.5100
1501.0000;22416.0700
1502.0000;22417.3700
1503.0000;22425.5400
1504.0000;22441.3200
1505.0000;22467.9400
1506.0000;22515.1500
1507.0000;22562.3200
1508.0000;22594.8000
1509.0000;22599.8600
1510.0000;22595.5600
1511.0000;22607.3400
1512.0000;22618.1200
1513.0000;22624.0900
1514.0000;22623.6200
1515.0000;22623.2300
1516.0000;22626.6600
1517.0000;22635.9500
1518.0000;22656.6700
1519.0000;22684.4700
1520.0000;22711.3200
1521.0000;22730.5300
1522.0000;22739.9200
1523.0000;22746.6100
1524.0000;22748.0800
1525.0000;22753.6300
1526.0000;22767.0200
1527.0000;22788.6200
1528.0000;22825.8700
1529.0000;22868.1600
1530.0000;22908.4300
1531.0000;22937.9200
1532.0000;22945.7800
1533.0000;22925.8900
1534.0000;22890.5400
1535.0000;22886.5900
1536.0000;22923.5900
1537.0000;22959.9300
1538.0000;22952.1700
1539.0000;22930.4000
1540.0000;22938.1900
1541.0000;22977.6900
1542.0000;23019.2600
1543.0000;23047.7800
1544.0000;23063.0000
1545.0000;23078.0600
1546.0000;23084.9000
1547.0000;23083.9400
1548.0000;23076.2400
1549.0000;23066.8100
1550.0000;23066.4600
1551.0000;23074.0600
1552.0000;23084.0100
1553.0000;23093.0500
1554.0000;23104.0500
1555.0000;23121.2600
1556.0000;23138.0900
1557.0000;23152.5900
1558.0000;23160.7700
1559.0000;23159.0700
1560.0000;23150.7500
1561.0000;23132.9200
1562.0000;23107.7200
1563.0000;23081.4400
1564.0000;23069.4600
1565.0000;23080.8100
1566.0000;23109.4900
1567.0000;23137.6100
1568.0000;23161.6900
1569.0000;23183.5200
1570.0000;23202.9200
1571.0000;23207.8100
1572.0000;23195.5000
1573.0000;23169.4600
1574.0000;23152.5100
1575.0000;23154.8900
1576.0000;23167.3300
1577.0000;23180.9500
1578.0000;23194.2900
1579.0000;23200.5500
1580.0000;23196.2500
1581.0000;23189.4900
1582.0000;23190.0800
1583.0000;23188.1800
1584.0000;23172.0200
1585.0000;23146.9400
1586.0000;23133.4900
1587.0000;23145.0600
1588.0000;23166.5300
1589.0000;23171.8600
1590.0000;23168.1300
1591.0000;23171.7900
1592.0000;23187.8900
1593.0000;23211.7400
1594.0000;23244.4500
1595.0000;23275.1700
1596.0000;23302.2100
1597.0000;23317.8000
1598.0000;23319.0500
1599.0000;23307.8200
1600.0000;23288.8300
1601.0000;23281.8400
1602.0000;23287.3400
1603.0000;23290.5800
1604.0000;23281.5700
1605.0000;23276.8800
1606.0000;23288.6700
1607.0000;23316.0800
1608.0000;23348.6600
1609.0000;23380.6800
1610.0000;23410.7200
1611.0000;23442.5200
1612.0000;23464.9200
1613.0000;23484.2900
1614.0000;23497.0200
1615.0000;23513.3500
1616.0000;23549.0700
1617.0000;23581.6100
1618.0000;23597.4700
1619.0000;23591.7100
1620.0000;23580.7100
1621.0000;23573.8700
1622.0000;23567.6300
1623.0000;23562.1000
1624.0000;23561.9500
1625.0000;23571.8900
1626.0000;23592.0000
1627.0000;23608.5300
1628.0000;23607.4900
1629.0000;23598.8500
1630.0000;23600.4600
1631.0000;23614.4600
1632.0000;23640.9400
1633.0000;23680.3900
1634.0000;23714.5400
1635.0000;23730.0000
1636.0000;23721.5000
1637.0000;23707.6300
1638.0000;23695.3300
1639.0000;23695.5000
1640.0000;23723.6900
1641.0000;23767.2400
1642.0000;23802.5600
1643.0000;23820.1800
1644.0000;23820.8100
1645.0000;23804.2900
1646.0000;23784.3300
1647.0000;23791.0600
1648.0000;23818.1800
1649.0000;23839.1100
1650.0000;23839.9800
1651.0000;23830.1600
1652.0000;23819.5500
1653.0000;23807.0900
1654.0000;23794.9000
1655.0000;23787.2600
1656.0000;23788.4800
1657.0000;23802.5700
1658.0000;23819.4100
1659.0000;23824.1100
1660.0000;23815.7700
1661.0000;23807.3300
1662.0000;23804.5600
1663.0000;23799.7900
1664.0000;23784.0100
1665.0000;23766.7600
1666.0000;23760.3200
1667.0000;23767.9800
1668.0000;23772.5800
1669.0000;23759.7900
1670.0000;23740.8400
1671.0000;23723.4800
1672.0000;23714.5400
1673.0000;23721.5200
1674.0000;23750.5300
1675.0000;23771.6400
1676.0000;23752.9000
1677.0000;23708.9600
1678.0000;23673.1600
1679.0000;23657.9200
1680.0000;23660.5900
1681.0000;23681.9600
1682.0000;23707.9600
1683.0000;23709.7700
1684.0000;23688.8300
1685.0000;23663.3700
1686.0000;23642.8700
1687.0000;23631.3400
1688.0000;23628.4600
1689.0000;23639.4900
1690.0000;23660.1600
1691.0000;23685.7500
1692.0000;23697.1100
1693.0000;23677.1800
1694.0000;23651.4600
1695.0000;23657.8200
1696.0000;23685.5400
1697.0000;23703.6600
1698.0000;23698.3300
1699.0000;23683.2000
1700.0000;23669.3900
1701.0000;23658.1000
1702.0000;23653.9100
1703.0000;23659.6800
1704.0000;23669.6800
1705.0000;23679.1600
1706.0000;23690.0900
1707.0000;23704.9600
1708.0000;23717.1400
1709.0000;23722.5500
1710.0000;23717.9900
1711.0000;23707.4200
1712.0000;23696.8500
1713.0000;23685.8000
1714.0000;23675.9300
1715.0000;23668.7300
1716.0000;23656.3400
1717.0000;23634.4700
1718.0000;23627.3900
1719.0000;23657.3200
1720.0000;23704.8300
1721.0000;23727.0300
1722.0000;23714.8500
1723.0000;23706.5400
1724.0000;23730.5500
1725.0000;23757.6900
1726.0000;23762.6200
1727.0000;23750.0900
1728.0000;23748.0600
1729.0000;23763.9700
1730.0000;23786.9000
1731.0000;23811.4500
1732.0000;23832.5100
1733.0000;23851.0300
1734.0000;23860.1400
1735.0000;23861.4500
1736.0000;23855.3400
1737.0000;23847.5500
1738.0000;23850.1400
1739.0000;23859.1100
1740.0000;23868.1000
1741.0000;23875.3800
1742.0000;23883.9000
1743.0000;23897.7800
1744.0000;23904.3700
1745.0000;23893.7500
1746.0000;23872.2400
1747.0000;23861.6100
1748.0000;23870.6800
1749.0000;23889.6900
1750.0000;23912.8700
1751.0000;23932.4500
1752.0000;23938.8700
1753.0000;23929.5000
1754.0000;23919.8300
1755.0000;23916.7500
1756.0000;23918.4900
1757.0000;23928.4200
1758.0000;23938.3600
1759.0000;23931.1300
1760.0000;23908.6100
1761.0000;23903.5300
1762.0000;23935.2300
1763.0000;23973.2700
1764.0000;23984.0200
1765.0000;23972.5000
1766.0000;23958.7800
1767.0000;23948.0200
1768.0000;23943.9900
1769.0000;23952.5100
1770.0000;23967.0100
1771.0000;23977.1700
1772.0000;23982.0900
1773.0000;23987.2600
1774.0000;23992.5900
1775.0000;23992.2500
1776.0000;23985.0500
1777.0000;23972.0200
1778.0000;23959.1600
1779.0000;23947.7000
1780.0000;23935.8900
1781.0000;23924.1300
1782.0000;23914.0000
1783.0000;23901.2200
1784.0000;23891.0600
1785.0000;23879.5600
1786.0000;23869.5400
1787.0000;23860.3000
1788.0000;23850.9500
1789.0000;23845.9100
1790.0000;23844.3000
1791.0000;23846.1700
1792.0000;23842.5200
1793.0000;23834.5000
1794.0000;23832.4700
1795.0000;23842.0200
1796.0000;23854.6700
1797.0000;23863.7500
1798.0000;23865.6800
1799.0000;23859.5800
1800.0000;23845.4000
1801.0000;23831.4800
1802.0000;23827.9500
1803.0000;23820.9500
1804.0000;23790.4500
1805.0000;23751.2300
1806.0000;23719.6800
1807.0000;23707.5300
1808.0000;23707.5600
1809.0000;23712.6200
1810.0000;23720.8700
1811.0000;23716.7600
1812.0000;23704.5500
1813.0000;23696.3200
1814.0000;23695.4500
1815.0000;23691.6800
1816.0000;23675.9000
1817.0000;23659.9700
1818.0000;23650.9300
1819.0000;23651.9300
1820.0000;23656.0000
1821.0000;23661.7900
1822.0000;23668.0600
1823.0000;23669.8000
1824.0000;23673.5600
1825.0000;23692.7500
1826.0000;23717.0000
1827.0000;23721.1100
1828.0000;23696.6200
1829.0000;23676.8900
1830.0000;23697.7000
1831.0000;23727.1400
1832.0000;23723.1400
1833.0000;23694.1300
1834.0000;23682.6900
1835.0000;23704.3100
1836.0000;23723.3900
1837.0000;23708.6300
1838.0000;23686.0100
1839.0000;23684.7700
1840.0000;23703.5200
1841.0000;23721.2800
1842.0000;23729.7800
1843.0000;23737.1300
1844.0000;23750.3500
1845.0000;23761.6800
1846.0000;23770.9000
1847.0000;23774.8100
1848.0000;23773.4700
1849.0000;23766.8000
1850.0000;23773.6600
1851.0000;23815.2600
1852.0000;23862.1000
1853.0000;23880.0900
1854.0000;23868.8800
1855.0000;23863.7100
1856.0000;23874.6500
1857.0000;23893.6700
1858.0000;23922.0400
1859.0000;23945.8900
1860.0000;23950.9500
1861.0000;23940.5800
1862.0000;23946.2600
1863.0000;23975.5600
1864.0000;24005.5700
1865.0000;24022.7400
1866.0000;24027.8600
1867.0000;24031.5300
1868.0000;24029.5900
1869.0000;24030.4100
1870.0000;24034.9400
1871.0000;24029.5900
1872.0000;24000.6700
1873.0000;23978.7800
1874.0000;23999.4000
1875.0000;24049.7600
1876.0000;24078.5400
1877.0000;24074.2800
1878.0000;24072.9400
1879.0000;24097.5600
1880.0000;24127.3600
1881.0000;24147.6400
1882.0000;24161.7100
1883.0000;24194.0300
1884.0000;24238.4400
1885.0000;24271.7500
1886.0000;24280.3800
1887.0000;24274.7500
1888.0000;24279.7600
1889.0000;24287.3100
1890.0000;24297.1700
1891.0000;24309.5800
1892.0000;24330.8300
1893.0000;24363.4100
1894.0000;24396.5700
1895.0000;24430.9800
1896.0000;24454.5000
1897.0000;24471.5600
1898.0000;24476.6500
1899.0000;24486.6800
1900.0000;24507.8800
1901.0000;24526.2500
1902.0000;24536.3100
1903.0000;24536.2600
1904.0000;24537.0300
1905.0000;24533.8900
1906.0000;24520.2700
1907.0000;24495.8500
1908.0000;24487.8500
1909.0000;24517.4600
1910.0000;24557.8900
1911.0000;24566.2500
1912.0000;24553.0800
1913.0000;24557.5300
1914.0000;24584.8600
1915.0000;24609.3700
1916.0000;24616.8200
1917.0000;24613.6500
1918.0000;24609.4100
1919.0000;24608.0100
1920.0000;24627.0900
1921.0000;24662.5600
1922.0000;24686.7000
1923.0000;24681.8300
1924.0000;24674.0500
1925.0000;24695.8200
1926.0000;24726.7400
1927.0000;24748.2400
1928.0000;24757.3400
1929.0000;24774.6000
1930.0000;24803.3200
1931.0000;24832.9900
1932.0000;24858.3200
1933.0000;24877.3500
1934.0000;24901.9800
1935.0000;24923.0200
1936.0000;24941.3800
1937.0000;24953.4400
1938.0000;24956.7500
1939.0000;24950.6500
1940.0000;24948.8400
1941.0000;24976.2200
1942.0000;25014.5800
1943.0000;25030.4000
1944.0000;25020.9200
1945.0000;25023.0800
1946.0000;25053.7400
1947.0000;25096.7000
1948.0000;25147.2000
1949.0000;25187.6100
1950.0000;25203.9800
1951.0000;25195.8900
1952.0000;25210.3500
1953.0000;25257.8500
1954.0000;25287.1700
1955.0000;25266.0700
1956.0000;25229.2100
1957.0000;25223.0000
1958.0000;25244.6200
1959.0000;25284.2800
1960.0000;25333.6600
1961.0000;25374.9800
1962.0000;25390.7100
1963.0000;25397.2000
1964.0000;25421.4100
1965.0000;25450.8600
1966.0000;25488.3700
1967.0000;25527.2600
1968.0000;25570.4400
1969.0000;25614.5600
1970.0000;25662.0900
1971.0000;25726.4100
1972.0000;25771.5100
1973.0000;25787.2900
1974.0000;25770.6300
1975.0000;25762.6700
1976.0000;25768.4500
1977.0000;25782.5700
1978.0000;25804.5200
1979.0000;25826.3000
1980.0000;25844.5400
1981.0000;25854.7900
1982.0000;25865.6000
1983.0000;25872.2900
1984.0000;25876.3200
1985.0000;25877.9800
1986.0000;25890.2100
1987.0000;25925.5100
1988.0000;25955.3700
1989.0000;25956.0100
1990.0000;25935.3200
1991.0000;25927.6900
1992.0000;25937.0300
1993.0000;25954.2100
1994.0000;25975.3600
1995.0000;25997.9500
1996.0000;26017.5300
1997.0000;26036.0500
1998.0000;26065.2100
1999.0000;26098.4600
2000.0000;26141.7100
2001.0000;26186.0100
2002.0000;26215.7200
2003.0000;26222.2500
2004.0000;26212.5100
2005.0000;26208.0000
2006.0000;26206.1100
2007.0000;26219.7200
2008.0000;26243.0600
2009.0000;26253.5600
2010.0000;26242.9000
2011.0000;26239.1100
2012.0000;26260.9600
2013.0000;26290.5600
2014.0000;26315.0100
2015.0000;26328.8500
2016.0000;26333.1600
2017.0000;26328.1500
2018.0000;26336.4700
2019.0000;26367.7300
2020.0000;26400.9500
2021.0000;26423.1500
2022.0000;26438.3600
2023.0000;26463.5700
2024.0000;26486.4500
2025.0000;26505.7200
2026.0000;26514.7700
2027.0000;26520.2000
2028.0000;26525.1000
2029.0000;26522.4900
2030.0000;26510.7400
2031.0000;26498.2300
2032.0000;26498.8400
2033.0000;26510.1300
2034.0000;26518.6700
2035.0000;26520.2500
2036.0000;26510.9600
2037.0000;26487.1500
2038.0000;26467.8700
2039.0000;26471.6600
2040.0000;26484.3500
2041.0000;26475.9800
2042.0000;26455.5400
2043.0000;26443.6300
2044.0000;26447.9900
2045.0000;26464.4300
2046.0000;26492.0300
2047.0000;26513.1000
2048.0000;26513.0700
2049.0000;26497.3700
2050.0000;26486.1400
2051.0000;26481.7900
2052.0000;26491.8200
2053.0000;26514.9700
2054.0000;26519.8900
2055.0000;26486.4700
2056.0000;26444.7000
2057.0000;26424.0900
2058.0000;26423.0500
2059.0000;26424.2900
2060.0000;26436.8000
2061.0000;26470.8500
2062.0000;26520.3500
2063.0000;26552.4000
2064.0000;26541.9700
2065.0000;26522.3000
2066.0000;26534.0100
2067.0000;26565.0000
2068.0000;26611.5800
2069.0000;26658.0500
2070.0000;26672.3300
2071.0000;26644.9500
2072.0000;26626.4200
2073.0000;26647.2700
2074.0000;26684.6600
2075.0000;26727.4100
2076.0000;26756.6600
2077.0000;26749.8100
2078.0000;26713.8800
2079.0000;26702.8000
2080.0000;26725.5400
2081.0000;26745.5300
2082.0000;26743.1500
2083.0000;26740.5100
2084.0000;26759.9200
2085.0000;26778.2400
2086.0000;26773.2700
2087.0000;26752.1500
2088.0000;26745.0700
2089.0000;26756.1100
2090.0000;26766.0200
2091.0000;26765.9800
2092.0000;26771.3700
2093.0000;26795.5100
2094.0000;26819.6600
2095.0000;26825.1100
2096.0000;26817.8700
2097.0000;26824.1700
2098.0000;26842.7400
2099.0000;26860.2400
2100.0000;26869.6500
2101.0000;26881.0900
2102.0000;26904.8900
2103.0000;26921.1500
2104.0000;26915.6700
2105.0000;26899.4500
2106.0000;26906.1500
2107.0000;26931.7700
2108.0000;26949.9600
2109.0000;26952.6000
2110.0000;26954.5300
2111.0000;26965.1600
2112.0000;26974.0000
2113.0000;26975.6900
2114.0000;26974.5100
2115.0000;26979.0000
2116.0000;26990.7600
2117.0000;27014.1900
2118.0000;27046.2600
2119.0000;27077.5700
2120.0000;27100.8100
2121.0000;27112.0100
2122.0000;27113.5000
2123.0000;27109.4300
2124.0000;27124.7100
2125.0000;27142.6200
2126.0000;27137.3000
2127.0000;27111.9600
2128.0000;27100.0000
2129.0000;27115.4400
2130.0000;27134.5800
2131.0000;27142.7300
2132.0000;27139.7100
2133.0000;27123.7400
2134.0000;27102.6100
2135.0000;27092.8800
2136.0000;27098.2900
2137.0000;27113.8200
2138.0000;27136.4500
2139.0000;27152.0800
2140.0000;27150.8700
2141.0000;27149.7800
2142.0000;27163.6700
2143.0000;27187.0300
2144.0000;27225.9600
2145.0000;27258.4600
2146.0000;27259.4400
2147.0000;27223.7100
2148.0000;27187.8400
2149.0000;27165.7900
2150.0000;27148.8900
2151.0000;27134.6800
2152.0000;27127.0000
2153.0000;27118.8500
2154.0000;27111.8700
2155.0000;27088.3100
2156.0000;27067.7300
2157.0000;27086.1400
2158.0000;27141.5100
2159.0000;27174.1800
2160.0000;27154.3500
2161.0000;27116.2700
2162.0000;27082.2100
2163.0000;27065.5700
2164.0000;27088.1300
2165.0000;27127.2300
2166.0000;27132.9500
2167.0000;27105.7100
2168.0000;27077.0300
2169.0000;27055.1200
2170.0000;27038.1900
2171.0000;27030.2700
2172.0000;27026.6600
2173.0000;27021.2600
2174.0000;27009.4800
2175.0000;26970.1500
2176.0000;26932.6300
2177.0000;26937.3800
2178.0000;26981.6000
2179.0000;27017.9200
2180.0000;27030.1100
2181.0000;27040.2600
2182.0000;27053.7300
2183.0000;27079.2900
2184.0000;27136.8100
2185.0000;27187.1900
2186.0000;27203.6200
2187.0000;27190.0700
2188.0000;27195.3000
2189.0000;27210.2000
2190.0000;27206.9700
2191.0000;27180.1800
2192.0000;27152.0500
2193.0000;27134.2500
2194.0000;27129.5000
2195.0000;27136.1700
2196.0000;27151.8700
2197.0000;27158.7700
2198.0000;27166.7400
2199.0000;27198.3200
2200.0000;27239.1300
2201.0000;27258.0200
2202.0000;27242.2500
2203.0000;27221.8700
2204.0000;27212.1700
2205.0000;27208.4800
2206.0000;27209.2000
2207.0000;27216.8600
2208.0000;27228.2900
2209.0000;27240.2900
2210.0000;27245.9800
2211.0000;27245.5200
2212.0000;27248.6700
2213.0000;27257.1100
2214.0000;27274.0600
2215.0000;27299.3300
2216.0000;27321.7800
2217.0000;27340.4100
2218.0000;27334.3900
2219.0000;27290.5500
2220.0000;27235.0100
2221.0000;27216.9200
2222.0000;27234.9200
2223.0000;27249.9200
2224.0000;27256.0100
2225.0000;27253.5200
2226.0000;27241.2800
2227.0000;27234.1600
2228.0000;27242.5700
2229.0000;27261.1000
2230.0000;27285.8400
2231.0000;27305.6800
2232.0000;27311.3400
2233.0000;27298.3000
2234.0000;27273.5000
2235.0000;27246.6900
2236.0000;27246.2200
2237.0000;27278.1500
2238.0000;27294.3900
2239.0000;27268.7000
2240.0000;27237.3300
2241.0000;27228.0400
2242.0000;27229.0300
2243.0000;27222.2900
2244.0000;27221.0100
2245.0000;27235.0300
2246.0000;27256.7500
2247.0000;27260.9200
2248.0000;27246.8200
2249.0000;27249.9100
2250.0000;27280.5000
2251.0000;27302.6000
2252.0000;27294.1400
2253.0000;27281.6700
2254.0000;27294.0700
2255.0000;27309.1700
2256.0000;27304.4600
2257.0000;27290.7200
2258.0000;27289.9300
2259.0000;27301.9100
2260.0000;27313.9400
2261.0000;27324.7300
2262.0000;27348.0100
2263.0000;27385.6700
2264.0000;27421.6800
2265.0000;27447.9700
2266.0000;27454.0800
2267.0000;27441.7700
2268.0000;27419.8300
2269.0000;27415.6600
2270.0000;27428.8700
2271.0000;27451.7800
2272.0000;27480.3100
2273.0000;27504.0900
2274.0000;27515.7700
2275.0000;27518.4700
2276.0000;27513.0600
2277.0000;27510.6500
2278.0000;27524.7700
2279.0000;27536.8000
2280.0000;27531.1100
2281.0000;27514.8000
2282.0000;27495.8200
2283.0000;27485.7200
2284.0000;27503.6500
2285.0000;27542.1800
2286.0000;27562.1500
2287.0000;27553.1200
2288.0000;27547.2700
2289.0000;27557.6700
2290.0000;27564.0100
2291.0000;27553.5700
2292.0000;27551.5600
2293.0000;27583.3200
2294.0000;27624.2200
2295.0000;27649.7800
2296.0000;27653.0600
2297.0000;27647.6500
2298.0000;27630.2900
2299.0000;27608.9200
2300.0000;27590.9200
2301.0000;27590.6400
2302.0000;27613.8100
2303.0000;27631.5700
2304.0000;27624.4200
2305.0000;27604.4900
2306.0000;27582.3000
2307.0000;27561.3800
2308.0000;27540.0400
2309.0000;27532.2400
2310.0000;27546.1700
2311.0000;27572.4500
2312.0000;27571.4600
2313.0000;27543.4600
2314.0000;27527.7000
2315.0000;27534.7100
2316.0000;27544.4400
2317.0000;27547.0600
2318.0000;27553.6700
2319.0000;27570.6100
2320.0000;27581.8300
2321.0000;27570.1100
2322.0000;27555.1600
2323.0000;27567.2800
2324.0000;27593.4500
2325.0000;27608.9900
2326.0000;27611.1700
2327.0000;27611.1100
2328.0000;27611.5500
2329.0000;27627.4900
2330.0000;27661.4900
2331.0000;27685.8200
2332.0000;27685.1100
2333.0000;27681.1500
2334.0000;27693.1400
2335.0000;27715.8000
2336.0000;27754.8600
2337.0000;27788.3200
2338.0000;27791.1000
2339.0000;27774.8600
2340.0000;27787.2600
2341.0000;27822.2900
2342.0000;27848.0400
2343.0000;27860.0600
2344.0000;27890.6300
2345.0000;27943.0000
2346.0000;27976.0800
2347.0000;27970.3800
2348.0000;27945.3300
2349.0000;27923.7700
2350.0000;27911.6000
2351.0000;27923.8800
2352.0000;27947.6000
2353.0000;27954.5000
2354.0000;27951.1200
2355.0000;27957.4300
2356.0000;27965.9500
2357.0000;27957.6900
2358.0000;27934.6600
2359.0000;27924.7900
2360.0000;27936.5600
2361.0000;27948.4700
2362.0000;27949.6000
2363.0000;27936.4500
2364.0000;27902.7900
2365.0000;27881.9900
2366.0000;27907.0500
2367.0000;27944.2700
2368.0000;27951.2700
2369.0000;27932.6300
2370.0000;27901.5200
2371.0000;27872.3500
2372.0000;27878.2500
2373.0000;27915.4600
2374.0000;27926.0000
2375.0000;27903.6000
2376.0000;27914.4300
2377.0000;27977.4900
2378.0000;28027.4500
2379.0000;28025.8900
2380.0000;28020.8100
2381.0000;28054.7100
2382.0000;28089.0900
2383.0000;28100.1800
2384.0000;28096.1600
2385.0000;28103.6000
2386.0000;28110.9100
2387.0000;28111.4100
2388.0000;28106.1600
2389.0000;28109.2500
2390.0000;28114.4700
2391.0000;28091.9600
2392.0000;28043.3300
2393.0000;28010.2200
2394.0000;28012.7700
2395.0000;28034.1400
2396.0000;28063.2900
2397.0000;28081.6800
2398.0000;28066.5500
2399.0000;28048.7600
2400.0000;28063.2300
2401.0000;28090.1500
2402.0000;28106.3800
2403.0000;28116.7900
2404.0000;28136.3200
2405.0000;28155.1100
2406.0000;28169.8300
2407.0000;28171.8300
2408.0000;28156.0700
2409.0000;28127.0500
2410.0000;28115.1800
2411.0000;28132.0700
2412.0000;28146.8200
2413.0000;28144.9700
2414.0000;28134.2000
2415.0000;28115.3800
2416.0000;28111.4300
2417.0000;28140.9000
2418.0000;28183.2000
2419.0000;28211.0900
2420.0000;28224.6000
2421.0000;28236.7900
2422.0000;28240.0200
2423.0000;28247.0500
2424.0000;28250.9200
2425.0000;28246.0100
2426.0000;28233.8500
2427.0000;28229.6400
2428.0000;28235.1500
2429.0000;28234.3400
2430.0000;28223.0900
2431.0000;28210.4300
2432.0000;28202.1300
2433.0000;28180.7000
2434.0000;28137.3100
2435.0000;28097.0800
2436.0000;28076.8900
2437.0000;28079.5600
2438.0000;28088.4700
2439.0000;28112.0400
2440.0000;28142.1300
2441.0000;28170.0600
2442.0000;28186.2000
2443.0000;28188.7800
2444.0000;28198.6000
2445.0000;28211.0100
2446.0000;28221.7100
2447.0000;28225.6600
2448.0000;28220.2100
2449.0000;28205.5200
2450.0000;28190.1800
2451.0000;28181.2600
2452.0000;28186.0900
2453.0000;28209.3300
2454.0000;28211.1000
2455.0000;28156.5300
2456.0000;28123.1200
2457.0000;28181.4500
2458.0000;28255.9000
2459.0000;28254.4800
2460.0000;28215.8900
2461.0000;28207.2400
2462.0000;28206.3300
2463.0000;28186.5900
2464.0000;28161.2400
2465.0000;28146.9400
2466.0000;28147.6200
2467.0000;28143.3500
2468.0000;28139.4800
2469.0000;28157.3100
2470.0000;28194.8600
2471.0000;28212.6700
2472.0000;28195.7000
2473.0000;28178.6000
2474.0000;28177.9900
2475.0000;28177.4400
2476.0000;28170.2900
2477.0000;28161.2700
2478.0000;28150.8900
2479.0000;28147.0600
2480.0000;28152.8200
2481.0000;28167.2600
2482.0000;28181.7800
2483.0000;28199.3300
2484.0000;28227.1700
2485.0000;28252.7900
2486.0000;28270.7200
2487.0000;28274.6300
2488.0000;28273.8800
2489.0000;28270.5400
2490.0000;28282.5800
2491.0000;28305.2500
2492.0000;28319.4700
2493.0000;28314.7000
2494.0000;28281.5800
2495.0000;28225.8100
2496.0000;28196.3000
2497.0000;28216.8500
2498.0000;28247.6300
2499.0000;28264.2900
2500.0000;28283.1800
2501.0000;28307.7500
2502.0000;28335.8900
2503.0000;28371.5400
2504.0000;28399.2000
2505.0000;28416.1000
2506.0000;28420.1200
2507.0000;28430.3000
2508.0000;28435.9200
2509.0000;28440.1800
2510.0000;28439.6500
2511.0000;28436.1400
2512.0000;28432.6000
2513.0000;28436.4500
2514.0000;28447.2300
2515.0000;28459.1800
2516.0000;28471.1400
2517.0000;28490.4700
2518.0000;28509.1300
2519.0000;28507.0700
2520.0000;28480.2100
2521.0000;28457.8100
2522.0000;28450.5200
2523.0000;28418.1900
2524.0000;28351.5800
2525.0000;28301.7900
2526.0000;28300.9100
2527.0000;28288.7700
2528.0000;28221.2900
2529.0000;28162.1500
2530.0000;28146.4100
2531.0000;28150.4900
2532.0000;28135.2700
2533.0000;28129.1200
2534.0000;28148.6200
2535.0000;28163.2500
2536.0000;28127.3200
2537.0000;28081.5400
2538.0000;28087.8800
2539.0000;28125.2100
2540.0000;28145.2900
2541.0000;28144.8400
2542.0000;28124.2400
2543.0000;28098.3800
2544.0000;28112.9500
2545.0000;28155.4500
2546.0000;28160.5900
2547.0000;28127.8600
2548.0000;28124.4300
2549.0000;28154.8500
2550.0000;28161.8500
2551.0000;28133.3700
2552.0000;28103.5600
2553.0000;28087.8200
2554.0000;28105.8800
2555.0000;28163.7700
2556.0000;28188.7700
2557.0000;28141.3500
2558.0000;28097.5100
2559.0000;28106.2700
2560.0000;28128.7800
2561.0000;28139.0700
2562.0000;28145.3200
2563.0000;28148.5200
2564.0000;28145.8100
2565.0000;28139.0600
2566.0000;28131.6600
2567.0000;28127.9400
2568.0000;28129.3300
2569.0000;28134.5800
2570.0000;28140.7100
2571.0000;28142.5400
2572.0000;28138.1300
2573.0000;28124.6500
2574.0000;28112.6200
2575.0000;28120.0100
2576.0000;28140.0200
2577.0000;28153.4900
2578.0000;28154.6300
2579.0000;28145.0100
2580.0000;28125.5500
2581.0000;28106.8300
2582.0000;28095.1800
2583.0000;28089.3100
2584.0000;28092.5100
2585.0000;28098.6800
2586.0000;28108.4500
2587.0000;28132.8700
2588.0000;28166.7600
2589.0000;28182.5900
2590.0000;28170.8100
2591.0000;28162.7200
2592.0000;28170.6800
2593.0000;28175.8800
2594.0000;28172.0400
2595.0000;28169.9800
2596.0000;28174.5300
2597.0000;28171.1600
2598.0000;28153.1000
2599.0000;28134.5900
2600.0000;28125.0900
2601.0000;28117.0300
2602.0000;28104.5000
2603.0000;28085.7800
2604.0000;28052.9300
2605.0000;28032.8800
2606.0000;28043.4700
2607.0000;28067.0100
2608.0000;28073.1600
2609.0000;28076.7600
2610.0000;28086.7500
2611.0000;28108.7500
2612.0000;28157.1800
2613.0000;28206.6600
2614.0000;28236.7200
2615.0000;28239.9400
2616.0000;28237.3500
2617.0000;28224.0400
2618.0000;28218.0700
2619.0000;28212.4700
2620.0000;28193.1200
2621.0000;28172.6400
2622.0000;28166.8700
2623.0000;28176.9100
2624.0000;28184.9600
2625.0000;28194.6400
2626.0000;28214.1900
2627.0000;28236.1400
2628.0000;28248.1300
2629.0000;28249.8500
2630.0000;28259.8200
2631.0000;28282.4400
2632.0000;28335.6500
2633.0000;28401.5900
2634.0000;28432.7000
2635.0000;28412.0500
2636.0000;28367.4200
2637.0000;28311.6900
2638.0000;28260.6300
2639.0000;28231.2900
2640.0000;28215.4000
2641.0000;28215.9800
2642.0000;28210.0200
2643.0000;28194.3700
2644.0000;28192.9600
2645.0000;28210.7900
2646.0000;28229.7900
2647.0000;28239.4000
2648.0000;28238.7500
2649.0000;28226.5400
2650.0000;28212.8700
2651.0000;28204.1600
2652.0000;28193.8600
2653.0000;28180.8500
2654.0000;28172.0200
2655.0000;28169.8500
2656.0000;28157.5800
2657.0000;28127.7800
2658.0000;28119.3400
2659.0000;28152.5400
2660.0000;28177.2600
2661.0000;28159.8300
2662.0000;28150.2000
2663.0000;28178.2400
2664.0000;28204.5500
2665.0000;28204.6000
2666.0000;28187.0300
2667.0000;28157.7100
2668.0000;28139.3300
2669.0000;28151.4700
2670.0000;28164.7800
2671.0000;28154.6900
2672.0000;28133.4200
2673.0000;28110.1900
2674.0000;28087.5100
2675.0000;28068.7000
2676.0000;28059.4500
2677.0000;28057.0400
2678.0000;28059.5100
2679.0000;28056.9600
2680.0000;28056.1400
2681.0000;28063.8300
2682.0000;28056.8600
2683.0000;28013.1900
2684.0000;27968.0100
2685.0000;27952.3400
2686.0000;27958.5200
2687.0000;27973.1400
2688.0000;27973.5400
2689.0000;27925.6200
2690.0000;27873.0300
2691.0000;27859.4500
2692.0000;27875.5500
2693.0000;27894.9000
2694.0000;27919.4500
2695.0000;27940.0700
2696.0000;27954.1300
2697.0000;27969.4600
2698.0000;27975.1400
2699.0000;27964.6000
2700.0000;27968.6700
2701.0000;28031.3600
2702.0000;28094.1200
2703.0000;28093.7800
2704.0000;28059.3200
2705.0000;28052.7000
2706.0000;28044.5000
2707.0000;28010.5700
2708.0000;27980.2900
2709.0000;27979.9000
2710.0000;27988.2200
2711.0000;27961.6300
2712.0000;27939.3900
2713.0000;27956.8300
2714.0000;27987.7200
2715.0000;27990.4700
2716.0000;27990.7000
2717.0000;28021.8000
2718.0000;28052.7000
2719.0000;28060.3100
2720.0000;28047.2400
2721.0000;28028.5800
2722.0000;28013.1400
2723.0000;28024.1300
2724.0000;28029.9800
2725.0000;27984.7900
2726.0000;27936.2900
2727.0000;27931.1300
2728.0000;27944.4400
2729.0000;27927.9800
2730.0000;27923.5100
2731.0000;27964.7700
2732.0000;28013.5500
2733.0000;28025.4500
2734.0000;28016.5900
2735.0000;28017.7100
2736.0000;28010.5700
2737.0000;27987.3000
2738.0000;27967.1000
2739.0000;27968.3700
2740.0000;27973.7700
2741.0000;27959.0700
2742.0000;27942.0500
2743.0000;27934.3500
2744.0000;27932.0900
2745.0000;27926.5600
2746.0000;27930.1500
2747.0000;27949.6200
2748.0000;27969.3400
2749.0000;27976.2000
2750.0000;27971.9300
2751.0000;27960.6500
2752.0000;27955.2500
2753.0000;27968.8200
2754.0000;27993.1600
2755.0000;28021.4200
2756.0000;28037.5800
2757.0000;28029.3300
2758.0000;28017.4000
2759.0000;28025.4000
2760.0000;28012.3200
2761.0000;27955.8900
2762.0000;27906.4700
2763.0000;27900.3200
2764.0000;27911.1300
2765.0000;27918.0000
2766.0000;27943.5100
2767.0000;27989.6300
2768.0000;28013.6600
2769.0000;27990.3500
2770.0000;27969.1200
2771.0000;27978.9800
2772.0000;27983.3300
2773.0000;27968.1500
2774.0000;27945.0300
2775.0000;27921.5300
2776.0000;27901.3000
2777.0000;27888.4100
2778.0000;27875.7200
2779.0000;27861.6700
2780.0000;27849.9300
2781.0000;27843.0600
2782.0000;27837.2800
2783.0000;27834.2300
2784.0000;27840.0300
2785.0000;27857.9000
2786.0000;27900.0700
2787.0000;27950.0900
2788.0000;27947.1200
2789.0000;27883.3000
2790.0000;27846.3300
2791.0000;27851.4000
2792.0000;27846.1500
2793.0000;27827.6100
2794.0000;27797.2400
2795.0000;27773.8800
2796.0000;27795.9700
2797.0000;27856.2200
2798.0000;27896.8100
2799.0000;27901.7000
2800.0000;27880.7900
2801.0000;27847.7100
2802.0000;27851.8500
2803.0000;27881.7100
2804.0000;27883.7500
2805.0000;27871.1300
2806.0000;27886.4400
2807.0000;27904.5000
2808.0000;27879.8000
2809.0000;27839.2500
2810.0000;27829.7500
2811.0000;27845.5000
2812.0000;27862.7700
2813.0000;27884.5600
2814.0000;27910.1800
2815.0000;27926.3400
2816.0000;27925.3300
2817.0000;27923.4200
2818.0000;27949.6000
2819.0000;27982.7900
2820.0000;28007.2600
2821.0000;28021.1100
2822.0000;28030.0400
2823.0000;28021.7600
2824.0000;27994.7800
2825.0000;27978.1600
2826.0000;27995.2200
2827.0000;28014.2000
2828.0000;28012.2900
2829.0000;28032.9400
2830.0000;28093.3100
2831.0000;28119.7100
2832.0000;28078.6200
2833.0000;28055.0400
2834.0000;28082.0200
2835.0000;28105.8400
2836.0000;28105.7200
2837.0000;28077.9600
2838.0000;28026.0300
2839.0000;27971.5800
2840.0000;27930.6600
2841.0000;27890.2500
2842.0000;27863.0100
2843.0000;27840.2200
2844.0000;27833.5400
2845.0000;27842.8700
2846.0000;27870.4700
2847.0000;27913.3200
2848.0000;27948.7600
2849.0000;27937.7400
2850.0000;27899.7700
2851.0000;27904.4200
2852.0000;27933.9200
2853.0000;27945.3400
2854.0000;27950.4200
2855.0000;27968.5500
2856.0000;27991.7000
2857.0000;28025.4300
2858.0000;28041.1900
2859.0000;28019.7300
2860.0000;27993.3300
2861.0000;28004.1900
2862.0000;28018.2500
2863.0000;28007.7800
2864.0000;28000.1000
2865.0000;28011.9600
2866.0000;28031.7800
2867.0000;28050.3200
2868.0000;28067.7600
2869.0000;28080.0500
2870.0000;28085.0100
2871.0000;28080.5000
2872.0000;28064.6200
2873.0000;28038.2600
2874.0000;27998.6700
2875.0000;27957.3700
2876.0000;27947.0000
2877.0000;27968.8400
2878.0000;27959.6100
2879.0000;27927.5200
2880.0000;27924.7700
2881.0000;27949.9400
2882.0000;27965.9800
2883.0000;27972.3800
2884.0000;27979.8300
2885.0000;27982.2400
2886.0000;27978.1600
2887.0000;27974.6500
2888.0000;27988.8100
2889.0000;28002.0200
2890.0000;27995.2300
2891.0000;27978.3300
2892.0000;27965.8500
2893.0000;27953.7000
2894.0000;27936.6200
2895.0000;27940.3000
2896.0000;27976.1800
2897.0000;28019.6700
2898.0000;28050.4600
2899.0000;28082.7400
2900.0000;28116.7700
2901.0000;28136.8900
2902.0000;28136.1200
2903.0000;28132.2100
2904.0000;28127.9800
2905.0000;28114.4400
2906.0000;28098.9500
2907.0000;28104.8000
2908.0000;28125.5900
2909.0000;28121.6100
2910.0000;28098.8700
2911.0000;28088.7000
2912.0000;28084.0600
2913.0000;28055.3500
2914.0000;28040.1200
2915.0000;28082.2800
2916.0000;28142.1300
2917.0000;28170.4500
2918.0000;28158.8200
2919.0000;28108.7700
2920.0000;28069.1000
2921.0000;28090.3000
2922.0000;28097.3700
2923.0000;28045.4500
2924.0000;27991.8900
2925.0000;27969.1800
2926.0000;27963.8500
2927.0000;27971.5900
2928.0000;27955.2900
2929.0000;27916.9300
2930.0000;27914.7900
2931.0000;27948.7000
2932.0000;27958.6800
2933.0000;27937.1200
2934.0000;27894.0900
2935.0000;27854.4400
2936.0000;27856.5400
2937.0000;27894.8900
2938.0000;27930.0700
2939.0000;27953.8400
2940.0000;27960.6700
2941.0000;27943.4800
2942.0000;27912.6600
2943.0000;27883.5000
2944.0000;27873.7300
2945.0000;27868.7700
2946.0000;27858.4200
2947.0000;27871.1700
2948.0000;27912.3800
2949.0000;27928.6000
2950.0000;27903.6700
2951.0000;27886.9700
2952.0000;27882.5000
2953.0000;27854.2100
2954.0000;27810.4700
2955.0000;27771.8900
2956.0000;27751.6300
2957.0000;27735.6600
2958.0000;27734.6700
2959.0000;27738.6600
2960.0000;27748.9900
2961.0000;27757.5700
2962.0000;27759.3300
2963.0000;27748.1200
2964.0000;27745.7200
2965.0000;27769.8200
2966.0000;27785.7900
2967.0000;27773.4000
2968.0000;27760.4200
2969.0000;27758.2100
2970.0000;27744.4500
2971.0000;27721.1800
2972.0000;27718.2400
2973.0000;27734.1700
2974.0000;27727.8100
2975.0000;27704.2700
2976.0000;27688.6600
2977.0000;27688.9900
2978.0000;27704.9300
2979.0000;27731.1500
2980.0000;27749.1600
2981.0000;27769.5100
2982.0000;27810.7000
2983.0000;27825.6600
2984.0000;27787.5100
2985.0000;27749.5500
2986.0000;27749.6300
2987.0000;27764.2200
2988.0000;27782.7400
2989.0000;27780.1400
2990.0000;27755.1800
2991.0000;27754.5800
2992.0000;27778.9600
2993.0000;27795.6900
2994.0000;27800.6400
2995.0000;27804.2900
2996.0000;27801.5100
2997.0000;27793.4500
2998.0000;27784.6100
2999.0000;27780.3900
3000.0000;27784.2200
3001.0000;27796.4300
3002.0000;27804.6800
3003.0000;27799.5100
3004.0000;27805.5000
3005.0000;27829.0900
3006.0000;27829.4600
3007.0000;27798.7700
3008.0000;27775.5500
3009.0000;27766.0600
3010.0000;27746.2100
3011.0000;27726.7700
3012.0000;27718.7500
3013.0000;27724.6800
3014.0000;27732.8600
3015.0000;27740.1800
3016.0000;27739.3200
3017.0000;27731.1700
3018.0000;27718.8200
3019.0000;27712.6400
3020.0000;27719.4200
3021.0000;27704.1600
3022.0000;27656.1900
3023.0000;27607.6400
3024.0000;27580.6300
3025.0000;27590.8900
3026.0000;27630.5600
3027.0000;27637.8100
3028.0000;27621.1000
3029.0000;27628.3400
3030.0000;27631.3900
3031.0000;27589.9200
3032.0000;27558.0800
3033.0000;27591.0200
3034.0000;27612.4500
3035.0000;27569.5400
3036.0000;27540.2500
3037.0000;27560.5100
3038.0000;27589.1400
3039.0000;27610.2400
3040.0000;27617.3900
3041.0000;27608.5000
3042.0000;27611.6900
3043.0000;27610.8400
3044.0000;27571.8600
3045.0000;27516.5900
3046.0000;27479.4900
3047.0000;27458.7200
3048.0000;27437.7300
3049.0000;27431.1300
3050.0000;27436.7900
3051.0000;27435.3600
3052.0000;27417.0300
3053.0000;27402.3600
3054.0000;27399.1700
3055.0000;27402.5700
3056.0000;27414.2700
3057.0000;27439.2000
3058.0000;27457.3500
3059.0000;27438.8400
3060.0000;27404.1800
3061.0000;27394.7100
3062.0000;27392.3800
3063.0000;27380.8100
3064.0000;27369.6100
3065.0000;27362.3800
3066.0000;27361.8400
3067.0000;27366.2200
3068.0000;27354.2600
3069.0000;27324.2000
3070.0000;27284.3000
3071.0000;27259.9000
3072.0000;27283.5100
3073.0000;27328.5000
3074.0000;27323.4300
3075.0000;27315.0000
3076.0000;27355.6600
3077.0000;27388.8300
3078.0000;27381.6300
3079.0000;27353.7400
3080.0000;27323.1600
3081.0000;27335.6400
3082.0000;27388.3300
3083.0000;27385.3400
3084.0000;27339.0500
3085.0000;27343.5700
3086.0000;27375.1900
3087.0000;27375.6300
3088.0000;27370.8700
3089.0000;27389.0900
3090.0000;27400.5500
3091.0000;27387.5900
3092.0000;27386.0000
3093.0000;27410.2700
3094.0000;27442.0500
3095.0000;27467.9900
3096.0000;27477.4400
3097.0000;27471.6900
3098.0000;27488.2000
3099.0000;27507.1500
3100.0000;27497.0100
3101.0000;27486.0000
3102.0000;27510.7000
3103.0000;27525.8600
3104.0000;27503.7000
3105.0000;27483.4000
3106.0000;27483.3100
3107.0000;27497.3800
3108.0000;27513.2500
3109.0000;27490.4300
3110.0000;27445.8900
3111.0000;27436.5800
3112.0000;27441.0700
3113.0000;27415.0900
3114.0000;27377.7700
3115.0000;27340.9700
3116.0000;27313.7600
3117.0000;27302.4900
3118.0000;27276.6400
3119.0000;27235.6100
3120.0000;27207.6600
3121.0000;27204.2800
3122.0000;27204.8400
3123.0000;27219.2600
3124.0000;27258.2000
3125.0000;27279.6700
3126.0000;27241.4100
3127.0000;27191.5500
3128.0000;27171.4500
3129.0000;27145.4200
3130.0000;27110.6000
3131.0000;27090.4400
3132.0000;27092.8800
3133.0000;27098.2700
3134.0000;27100.3100
3135.0000;27080.1900
3136.0000;27057.3200
3137.0000;27058.0500
3138.0000;27053.6300
3139.0000;27020.5700
3140.0000;27013.5000
3141.0000;27052.8800
3142.0000;27093.5500
3143.0000;27115.0300
3144.0000;27131.3800
3145.0000;27123.0700
3146.0000;27071.2400
3147.0000;27014.4500
3148.0000;27009.3900
3149.0000;27011.1000
3150.0000;26974.6100
3151.0000;26929.8200
3152.0000;26893.2300
3153.0000;26885.6300
3154.0000;26912.9300
3155.0000;26947.0000
3156.0000;26965.5500
3157.0000;26935.9500
3158.0000;26897.4100
3159.0000;26918.4100
3160.0000;26947.2400
3161.0000;26940.8200
3162.0000;26903.2700
3163.0000;26842.7400
3164.0000;26803.6700
3165.0000;26802.9700
3166.0000;26803.7700
3167.0000;26808.1100
3168.0000;26810.7000
3169.0000;26808.7300
3170.0000;26796.8300
3171.0000;26790.8400
3172.0000;26801.5600
3173.0000;26819.6400
3174.0000;26834.8600
3175.0000;26818.3800
3176.0000;26778.0400
3177.0000;26766.1400
3178.0000;26778.6800
3179.0000;26776.8800
3180.0000;26788.8000
3181.0000;26832.1300
3182.0000;26879.9700
3183.0000;26910.5000
3184.0000;26927.6500
3185.0000;26927.7600
3186.0000;26919.0700
3187.0000;26909.8200
3188.0000;26923.5800
3189.0000;26943.4300
3190.0000;26940.3600
3191.0000;26937.5500
3192.0000;26954.7900
3193.0000;26949.3800
3194.0000;26911.1100
3195.0000;26897.8000
3196.0000;26912.5500
3197.0000;26897.3000
3198.0000;26866.7800
3199.0000;26853.5400
3200.0000;26850.9500
3201.0000;26846.0400
3202.0000;26835.7300
3203.0000;26817.4500
3204.0000;26808.3000
3205.0000;26810.8800
3206.0000;26799.4800
3207.0000;26778.9300
3208.0000;26762.4400
3209.0000;26751.7200
3210.0000;26742.8500
3211.0000;26726.5900
3212.0000;26696.4300
3213.0000;26679.1000
3214.0000;26687.0400
3215.0000;26712.5700
3216.0000;26738.3100
3217.0000;26730.1100
3218.0000;26698.7100
3219.0000;26677.7500
3220.0000;26670.4000
3221.0000;26680.4300
3222.0000;26663.5000
3223.0000;26612.7200
3224.0000;26624.2200
3225.0000;26678.0300
3226.0000;26637.8400
3227.0000;26554.8100
3228.0000;26538.2500
3229.0000;26531.5400
3230.0000;26481.6300
3231.0000;26437.7700
3232.0000;26420.2600
3233.0000;26419.7000
3234.0000;26423.3100
3235.0000;26375.1400
3236.0000;26316.0400
3237.0000;26311.8300
3238.0000;26341.9200
3239.0000;26370.7300
3240.0000;26380.5400
3241.0000;26357.3900
3242.0000;26321.1700
3243.0000;26290.0600
3244.0000;26281.3400
3245.0000;26300.0300
3246.0000;26331.7400
3247.0000;26349.9500
3248.0000;26329.7100
3249.0000;26311.0000
3250.0000;26314.4500
3251.0000;26326.4100
3252.0000;26336.1900
3253.0000;26313.9300
3254.0000;26291.4900
3255.0000;26323.5200
3256.0000;26354.4600
3257.0000;26336.9300
3258.0000;26342.8400
3259.0000;26389.0800
3260.0000;26411.1500
3261.0000;26398.9400
3262.0000;26388.7900
3263.0000;26367.4300
3264.0000;26323.5500
3265.0000;26294.8500
3266.0000;26304.1800
3267.0000;26301.3200
3268.0000;26280.3600
3269.0000;26292.9200
3270.0000;26318.6900
3271.0000;26290.8700
3272.0000;26243.0400
3273.0000;26219.8000
3274.0000;26212.7500
3275.0000;26218.0200
3276.0000;26234.5600
3277.0000;26255.3700
3278.0000;26266.5900
3279.0000;26271.3000
3280.0000;26293.0400
3281.0000;26306.3500
3282.0000;26295.4400
3283.0000;26283.0500
3284.0000;26281.5600
3285.0000;26291.5100
3286.0000;26301.5700
3287.0000;26280.0600
3288.0000;26246.0200
3289.0000;26231.3500
3290.0000;26223.5700
3291.0000;26212.9700
3292.0000;26191.4200
3293.0000;26158.0800
3294.0000;26110.9300
3295.0000;26065.7400
3296.0000;26025.6900
3297.0000;25991.5900
3298.0000;25947.0200
3299.0000;25918.4000
3300.0000;25915.9200
3301.0000;25932.1100
3302.0000;25957.3400
3303.0000;25963.8200
3304.0000;25965.1000
3305.0000;25988.5500
3306.0000;26009.3500
3307.0000;26011.0500
3308.0000;25956.7800
3309.0000;25863.5600
3310.0000;25825.1300
3311.0000;25841.2000
3312.0000;25848.8300
3313.0000;25845.7000
3314.0000;25814.7900
3315.0000;25795.3200
3316.0000;25800.1000
3317.0000;25797.3300
3318.0000;25771.3600
3319.0000;25690.5800
3320.0000;25621.3900
3321.0000;25633.2200
3322.0000;25663.2300
3323.0000;25670.0600
3324.0000;25688.9400
3325.0000;25706.2500
3326.0000;25679.4600
3327.0000;25639.7300
3328.0000;25646.7500
3329.0000;25652.3300
3330.0000;25626.4200
3331.0000;25587.6700
3332.0000;25557.0300
3333.0000;25565.3900
3334.0000;25597.3700
3335.0000;25594.4300
3336.0000;25598.3800
3337.0000;25635.3800
3338.0000;25650.6000
3339.0000;25630.8100
3340.0000;25625.1800
3341.0000;25628.6100
3342.0000;25613.7900
3343.0000;25616.9100
3344.0000;25662.7400
3345.0000;25693.0600
3346.0000;25685.7600
3347.0000;25688.2700
3348.0000;25700.8400
3349.0000;25722.3300
3350.0000;25726.2900
3351.0000;25691.8600
3352.0000;25678.3500
3353.0000;25707.8500
3354.0000;25719.4900
3355.0000;25710.7400
3356.0000;25705.6800
3357.0000;25716.0500
3358.0000;25754.9600
3359.0000;25771.2300
3360.0000;25742.9700
3361.0000;25715.9600
3362.0000;25702.5100
3363.0000;25695.2200
3364.0000;25705.9700
3365.0000;25735.9700
3366.0000;25754.4500
3367.0000;25742.5100
3368.0000;25702.0000
3369.0000;25656.6400
3370.0000;25657.6600
3371.0000;25674.6700
3372.0000;25651.8600
3373.0000;25662.9600
3374.0000;25721.6800
3375.0000;25722.3300
3376.0000;25672.0400
3377.0000;25677.7000
3378.0000;25679.8300
3379.0000;25617.4400
3380.0000;25566.4700
3381.0000;25562.7100
3382.0000;25548.0800
3383.0000;25519.2400
3384.0000;25466.3700
3385.0000;25439.7000
3386.0000;25477.3300
3387.0000;25506.7600
3388.0000;25493.7200
3389.0000;25471.5400
3390.0000;25455.7000
3391.0000;25472.0400
3392.0000;25491.7800
3393.0000;25484.1500
3394.0000;25436.3500
3395.0000;25364.9300
3396.0000;25351.8400
3397.0000;25383.6500
3398.0000;25371.3100
3399.0000;25369.5700
3400.0000;25407.0900
3401.0000;25420.6300
3402.0000;25392.2700
3403.0000;25356.0700
3404.0000;25326.6000
3405.0000;25315.1100
3406.0000;25317.3600
3407.0000;25322.3100
3408.0000;25322.3200
3409.0000;25311.5300
3410.0000;25283.9400
3411.0000;25258.9800
3412.0000;25257.3000
3413.0000;25261.9300
3414.0000;25259.9400
3415.0000;25252.1400
3416.0000;25239.4600
3417.0000;25221.0400
3418.0000;25214.3900
3419.0000;25231.2300
3420.0000;25245.5500
3421.0000;25244.1700
3422.0000;25239.1900
3423.0000;25238.5400
3424.0000;25262.1600
3425.0000;25265.1200
3426.0000;25217.6300
3427.0000;25200.9600
3428.0000;25226.1200
3429.0000;25210.9800
3430.0000;25180.8200
3431.0000;25177.6700
3432.0000;25187.6600
3433.0000;25200.2600
3434.0000;25211.4500
3435.0000;25213.3700
3436.0000;25203.9500
3437.0000;25182.9800
3438.0000;25157.6100
3439.0000;25138.2900
3440.0000;25128.8400
3441.0000;25104.1500
3442.0000;25069.8100
3443.0000;25021.7500
3444.0000;25016.4000
3445.0000;25077.3800
3446.0000;25125.7800
3447.0000;25133.9700
3448.0000;25140.1300
3449.0000;25134.9500
3450.0000;25125.1800
3451.0000;25108.2300
3452.0000;25086.7600
3453.0000;25047.6900
3454.0000;25010.7000
3455.0000;24998.4800
3456.0000;24998.1500
3457.0000;24988.4600
3458.0000;24980.7200
3459.0000;24978.7000
3460.0000;24980.2900
3461.0000;24988.8500
3462.0000;25004.6300
3463.0000;25015.5500
3464.0000;25015.4300
3465.0000;25022.8900
3466.0000;25015.0000
3467.0000;24943.5400
3468.0000;24881.9900
3469.0000;24885.3500
3470.0000;24885.7100
3471.0000;24871.8900
3472.0000;24861.7300
3473.0000;24846.3800
3474.0000;24811.7200
3475.0000;24780.4700
3476.0000;24768.9800
3477.0000;24791.3500
3478.0000;24819.2100
3479.0000;24790.4900
3480.0000;24754.4600
3481.0000;24747.7100
3482.0000;24735.6100
3483.0000;24718.6500
3484.0000;24704.9200
3485.0000;24690.1100
3486.0000;24664.8800
3487.0000;24642.2000
3488.0000;24628.1400
3489.0000;24605.9800
3490.0000;24588.9200
3491.0000;24584.2500
3492.0000;24594.6200
3493.0000;24614.2500
3494.0000;24629.4300
3495.0000;24631.1000
3496.0000;24622.7100
3497.0000;24602.6100
3498.0000;24578.4800
3499.0000;24580.6100
3500.0000;24606.9100
3501.0000;24615.6300
3502.0000;24600.3200
3503.0000;24564.5500
3504.0000;24530.2300
3505.0000;24514.7100
3506.0000;24507.1000
3507.0000;24501.5700
3508.0000;24477.2600
3509.0000;24454.3900
3510.0000;24444.7700
3511.0000;24442.4400
3512.0000;24445.9100
3513.0000;24444.7100
3514.0000;24438.0100
3515.0000;24425.2100
3516.0000;24404.5200
3517.0000;24386.5200
3518.0000;24385.9400
3519.0000;24395.1800
3520.0000;24397.8900
3521.0000;24409.7200
3522.0000;24428.5800
3523.0000;24447.1200
3524.0000;24444.2200
3525.0000;24406.3100
3526.0000;24375.2900
3527.0000;24367.1900
3528.0000;24341.1700
3529.0000;24305.4700
3530.0000;24268.1100
3531.0000;24234.9800
3532.0000;24209.5000
3533.0000;24180.6700
3534.0000;24156.2700
3535.0000;24128.9900
3536.0000;24131.8800
3537.0000;24171.8000
3538.0000;24192.2800
3539.0000;24194.6000
3540.0000;24228.2500
3541.0000;24253.6900
3542.0000;24246.0400
3543.0000;24199.3800
3544.0000;24136.4900
3545.0000;24121.0100
3546.0000;24102.2500
3547.0000;24030.8000
3548.0000;23969.2400
3549.0000;23938.0500
3550.0000;23882.4500
3551.0000;23845.5700
3552.0000;23847.1700
3553.0000;23846.0800
3554.0000;23827.9100
3555.0000;23800.2900
3556.0000;23778.9500
3557.0000;23779.5000
3558.0000;23753.6900
3559.0000;23695.1400
3560.0000;23642.8200
3561.0000;23627.5800
3562.0000;23658.3000
3563.0000;23688.9700
3564.0000;23690.4500
3565.0000;23679.4300
3566.0000;23672.1400
3567.0000;23697.2300
3568.0000;23698.4800
3569.0000;23664.7600
3570.0000;23681.6300
3571.0000;23713.5600
3572.0000;23689.1000
3573.0000;23655.9700
3574.0000;23638.2400
3575.0000;23597.5500
3576.0000;23562.6300
3577.0000;23572.7900
3578.0000;23553.1700
3579.0000;23480.1800
3580.0000;23440.1100
3581.0000;23440.4500
3582.0000;23445.7700
3583.0000;23441.2900
3584.0000;23414.7100
3585.0000;23387.0100
3586.0000;23372.0200
3587.0000;23375.4300
3588.0000;23382.7100
3589.0000;23376.3400
3590.0000;23330.2700
3591.0000;23290.9200
3592.0000;23328.2800
3593.0000;23380.2300
3594.0000;23404.0500
3595.0000;23414.9000
3596.0000;23429.7200
3597.0000;23493.2500
3598.0000;23524.4900
3599.0000;23496.4100
3600.0000;23488.7600
3601.0000;23491.2800
3602.0000;23477.6300
3603.0000;23464.2600
3604.0000;23458.2100
3605.0000;23452.6800
3606.0000;23445.8100
3607.0000;23431.6300
3608.0000;23427.2300
3609.0000;23439.5400
3610.0000;23462.4200
3611.0000;23476.1200
3612.0000;23459.7700
3613.0000;23437.2400
3614.0000;23427.0800
3615.0000;23440.7800
3616.0000;23453.9200
3617.0000;23435.5400
3618.0000;23409.1400
3619.0000;23388.9600
3620.0000;23372.2500
3621.0000;23373.3500
3622.0000;23393.1100
3623.0000;23401.5300
3624.0000;23381.7100
3625.0000;23322.7300
3626.0000;23283.1300
3627.0000;23305.7300
3628.0000;23313.8300
3629.0000;23299.2000
3630.0000;23291.5500
3631.0000;23274.6700
3632.0000;23246.1100
3633.0000;23249.3700
3634.0000;23268.3100
3635.0000;23243.8300
3636.0000;23231.9300
3637.0000;23252.2900
3638.0000;23229.3800
3639.0000;23179.7700
3640.0000;23150.8200
3641.0000;23139.3500
3642.0000;23139.3100
3643.0000;23116.8100
3644.0000;23085.4900
3645.0000;23064.9100
3646.0000;23038.5600
3647.0000;23014.7500
3648.0000;23015.5600
3649.0000;23040.1900
3650.0000;23069.8200
3651.0000;23056.9800
3652.0000;23004.0800
3653.0000;22971.1800
3654.0000;22948.4500
3655.0000;22926.7800
3656.0000;22901.0300
3657.0000;22877.2800
3658.0000;22855.8800
3659.0000;22834.9400
3660.0000;22809.3000
3661.0000;22756.6500
3662.0000;22715.0200
3663.0000;22730.2500
3664.0000;22721.4600
3665.0000;22670.6500
3666.0000;22650.0000
3667.0000;22645.1900
3668.0000;22627.1500
3669.0000;22619.9200
3670.0000;22617.6000
3671.0000;22577.1300
3672.0000;22550.5100
3673.0000;22570.2900
3674.0000;22572.2900
3675.0000;22552.6600
3676.0000;22529.8700
3677.0000;22525.7800
3678.0000;22545.6600
3679.0000;22547.7100
3680.0000;22533.5900
3681.0000;22517.3800
3682.0000;22514.2000
3683.0000;22521.1700
3684.0000;22492.9700
3685.0000;22477.0100
3686.0000;22510.3600
3687.0000;22528.0300
3688.0000;22521.2500
3689.0000;22518.7000
3690.0000;22517.0800
3691.0000;22518.7200
3692.0000;22529.3000
3693.0000;22523.9500
3694.0000;22473.1100
3695.0000;22453.7000
3696.0000;22479.9400
3697.0000;22464.0100
3698.0000;22442.2800
3699.0000;22449.5000
3700.0000;22479.1100
3701.0000;22516.7400
3702.0000;22538.9000
3703.0000;22547.7300
3704.0000;22544.8500
3705.0000;22528.2100
3706.0000;22496.8800
3707.0000;22458.2800
3708.0000;22418.4400
3709.0000;22391.4200
3710.0000;22377.1700
3711.0000;22365.2200
3712.0000;22340.2900
3713.0000;22334.8200
3714.0000;22340.0400
3715.0000;22318.9900
3716.0000;22318.6700
3717.0000;22344.3900
3718.0000;22321.7700
3719.0000;22285.3800
3720.0000;22282.5600
3721.0000;22269.1900
3722.0000;22243.3300
3723.0000;22218.8500
3724.0000;22193.2600
3725.0000;22168.1200
3726.0000;22148.9300
3727.0000;22144.9000
3728.0000;22153.7200
3729.0000;22128.7500
3730.0000;22081.7500
3731.0000;22104.2300
3732.0000;22093.5000
3733.0000;21988.1400
3734.0000;21928.7900
3735.0000;21920.7000
3736.0000;21899.9600
3737.0000;21875.7900
3738.0000;21854.2300
3739.0000;21853.0900
3740.0000;21862.8400
3741.0000;21865.1900
3742.0000;21857.9200
3743.0000;21848.8400
3744.0000;21854.4800
3745.0000;21859.0400
3746.0000;21851.4200
3747.0000;21828.1400
3748.0000;21789.3500
3749.0000;21746.8300
3750.0000;21729.7700
3751.0000;21747.6300
3752.0000;21778.4300
3753.0000;21787.1700
3754.0000;21761.7700
3755.0000;21755.9300
3756.0000;21755.3800
3757.0000;21744.0800
3758.0000;21756.0100
3759.0000;21766.1900
3760.0000;21713.4600
3761.0000;21674.5000
3762.0000;21685.5900
3763.0000;21691.1800
3764.0000;21699.3600
3765.0000;21712.3900
3766.0000;21740.1600
3767.0000;21764.2600
3768.0000;21757.5800
3769.0000;21756.1900
3770.0000;21767.9400
3771.0000;21744.3500
3772.0000;21722.8900
3773.0000;21740.1600
3774.0000;21769.4100
3775.0000;21795.4900
3776.0000;21809.1800
3777.0000;21787.3800
3778.0000;21744.9900
3779.0000;21745.4200
3780.0000;21768.6100
3781.0000;21785.2900
3782.0000;21779.3500
3783.0000;21763.8400
3784.0000;21772.2800
3785.0000;21738.1200
3786.0000;21674.7400
3787.0000;21670.0700
3788.0000;21676.8200
3789.0000;21660.3800
3790.0000;21660.2300
3791.0000;21658.9800
3792.0000;21632.4700
3793.0000;21643.4600
3794.0000;21674.0800
3795.0000;21644.3300
3796.0000;21605.4600
3797.0000;21588.4600
3798.0000;21570.9200
3799.0000;21562.9100
3800.0000;21561.4400
3801.0000;21511.4700
3802.0000;21448.6600
3803.0000;21444.8400
3804.0000;21427.3800
3805.0000;21387.8700
3806.0000;21382.5300
3807.0000;21365.7200
3808.0000;21314.7700
3809.0000;21313.4800
3810.0000;21316.2600
3811.0000;21252.5900
3812.0000;21203.2800
3813.0000;21184.7600
3814.0000;21161.3100
3815.0000;21147.3500
3816.0000;21131.5200
3817.0000;21062.4700
3818.0000;21007.7700
3819.0000;21014.0900
3820.0000;20980.1100
3821.0000;20936.1200
3822.0000;20936.5000
3823.0000;20964.4600
3824.0000;20989.8600
3825.0000;20963.3100
3826.0000;20934.2500
3827.0000;20931.5000
3828.0000;20931.3700
3829.0000;20912.5800
3830.0000;20862.8400
3831.0000;20837.0400
3832.0000;20832.1000
3833.0000;20814.3100
3834.0000;20787.1400
3835.0000;20754.5900
3836.0000;20710.9600
3837.0000;20700.0700
3838.0000;20718.3800
3839.0000;20658.3100
3840.0000;20621.7900
3841.0000;20686.7500
3842.0000;20732.6300
3843.0000;20733.8700
3844.0000;20699.4900
3845.0000;20681.1300
3846.0000;20687.8100
3847.0000;20681.2200
3848.0000;20671.0600
3849.0000;20669.0600
3850.0000;20702.3900
3851.0000;20732.6400
3852.0000;20729.3900
3853.0000;20730.2000
3854.0000;20728.1800
3855.0000;20716.2800
3856.0000;20659.5000
3857.0000;20613.8400
3858.0000;20673.6400
3859.0000;20700.5500
3860.0000;20656.7000
3861.0000;20615.5900
3862.0000;20625.8400
3863.0000;20689.8400
3864.0000;20676.2100
3865.0000;20645.3600
3866.0000;20660.4300
3867.0000;20670.2800
3868.0000;20654.6300
3869.0000;20605.0700
3870.0000;20567.5700
3871.0000;20544.7400
3872.0000;20494.3400
3873.0000;20458.8400
3874.0000;20452.8000
3875.0000;20451.6300
3876.0000;20444.6700
3877.0000;20426.6100
3878.0000;20429.2900
3879.0000;20439.1900
3880.0000;20436.6200
3881.0000;20415.0400
3882.0000;20393.6400
3883.0000;20396.9500
3884.0000;20370.3400
3885.0000;20325.7200
3886.0000;20310.3700
3887.0000;20265.0800
3888.0000;20207.2100
3889.0000;20213.3900
3890.0000;20214.0000
3891.0000;20178.3200
3892.0000;20163.8200
3893.0000;20152.2900
3894.0000;20126.6300
3895.0000;20086.1000
3896.0000;20060.8600
3897.0000;20069.7600
3898.0000;20057.8400
3899.0000;20028.0600
3900.0000;20001.8600
3901.0000;19983.5000
3902.0000;19968.6600
3903.0000;19934.0100
3904.0000;19896.6800
3905.0000;19870.5700
3906.0000;19852.2300
3907.0000;19868.1300
3908.0000;19904.0100
3909.0000;19893.8300
3910.0000;19868.5500
3911.0000;19854.1600
3912.0000;19811.3700
3913.0000;19781.8200
3914.0000;19800.6300
3915.0000;19827.1300
3916.0000;19835.6800
3917.0000;19808.9900
3918.0000;19820.8800
3919.0000;19860.9100
3920.0000;19873.6800
3921.0000;19874.3100
3922.0000;19861.9800
3923.0000;19838.1000
3924.0000;19820.8200
3925.0000;19823.2800
3926.0000;19845.5700
3927.0000;19839.7700
3928.0000;19798.9700
3929.0000;19796.1700
3930.0000;19804.9100
3931.0000;19804.8700
3932.0000;19817.6100
3933.0000;19808.9900
3934.0000;19763.5000
3935.0000;19737.0700
3936.0000;19736.9400
3937.0000;19747.4100
3938.0000;19726.9400
3939.0000;19695.9300
3940.0000;19692.0300
3941.0000;19693.5900
3942.0000;19689.8400
3943.0000;19669.1900
3944.0000;19638.0600
3945.0000;19616.7900
3946.0000;19628.0300
3947.0000;19620.9600
3948.0000;19582.3600
3949.0000;19533.7600
3950.0000;19493.5400
3951.0000;19470.0500
3952.0000;19438.6800
3953.0000;19411.3000
3954.0000;19391.5900
3955.0000;19365.8000
3956.0000;19356.1900
3957.0000;19361.9200
3958.0000;19340.7400
3959.0000;19315.5400
3960.0000;19298.3100
3961.0000;19244.9500
3962.0000;19196.2500
3963.0000;19179.9900
3964.0000;19157.0300
3965.0000;19110.2200
3966.0000;19037.1500
3967.0000;19005.1800
3968.0000;18997.4400
3969.0000;18970.0600
3970.0000;18932.2200
3971.0000;18885.4100
3972.0000;18834.4400
3973.0000;18826.8900
3974.0000;18858.2200
3975.0000;18884.5100
3976.0000;18870.6500
3977.0000;18844.1100
3978.0000;18864.5100
3979.0000;18847.6800
3980.0000;18803.2600
3981.0000;18784.4900
3982.0000;18794.0600
3983.0000;18799.3700
3984.0000;18740.0500
3985.0000;18703.6000
3986.0000;18699.6100
3987.0000;18673.5300
3988.0000;18646.0600
3989.0000;18627.8600
3990.0000;18620.8300
3991.0000;18607.7300
3992.0000;18593.7900
3993.0000;18600.4900
3994.0000;18635.5200
3995.0000;18683.0500
3996.0000;18711.7600
3997.0000;18708.1300
3998.0000;18686.9100
3999.0000;18703.0200
4000.0000;18699.9600
4001.0000;18676.0900
4002.0000;18693.5700
4003.0000;18705.3800
4004.0000;18692.2900
4005.0000;18675.1900
4006.0000;18648.7900
4007.0000;18624.2100
4008.0000;18618.7200
4009.0000;18629.8000
4010.0000;18636.9900
4011.0000;18604.8200
4012.0000;18562.8400
4013.0000;18544.7500
4014.0000;18570.4700
4015.0000;18569.7200
4016.0000;18521.5400
4017.0000;18489.6800
4018.0000;18472.6900
4019.0000;18461.7800
4020.0000;18414.2100
4021.0000;18408.2400
4022.0000;18438.6500
4023.0000;18388.3500
4024.0000;18367.4700
4025.0000;18404.3800
4026.0000;18425.6500
4027.0000;18372.7300
4028.0000;18277.4600
4029.0000;18276.2400
4030.0000;18266.3700
4031.0000;18231.2200
4032.0000;18237.8800
4033.0000;18230.2200
4034.0000;18194.3000
4035.0000;18154.0700
4036.0000;18129.1500
4037.0000;18121.9700
4038.0000;18103.5000
4039.0000;18108.3400
4040.0000;18111.4100
4041.0000;18047.4200
4042.0000;17987.2300
4043.0000;17967.9200
4044.0000;17982.7800
4045.0000;17994.1000
4046.0000;18007.4200
4047.0000;18055.2300
4048.0000;18060.3300
4049.0000;18029.8800
4050.0000;18019.5200
4051.0000;17982.6300
4052.0000;17946.9700
4053.0000;17951.6800
4054.0000;17925.3500
4055.0000;17897.7500
4056.0000;17918.2300
4057.0000;17966.5300
4058.0000;17987.0100
4059.0000;17939.4900
4060.0000;17953.9000
4061.0000;17981.4300
4062.0000;17960.0800
4063.0000;17968.4600
4064.0000;17957.9200
4065.0000;17902.6000
4066.0000;17895.4600
4067.0000;17901.6400
4068.0000;17885.0200
4069.0000;17866.3100
4070.0000;17861.4600
4071.0000;17875.3300
4072.0000;17895.1700
4073.0000;17879.2600
4074.0000;17820.3700
4075.0000;17758.2800
4076.0000;17713.6500
4077.0000;17692.3000
4078.0000;17661.9500
4079.0000;17618.5300
4080.0000;17572.6800
4081.0000;17541.9700
4082.0000;17525.4700
4083.0000;17504.5700
4084.0000;17448.3800
4085.0000;17413.9500
4086.0000;17391.4900
4087.0000;17340.3800
4088.0000;17295.2500
4089.0000;17264.0000
4090.0000;17237.2800
4091.0000;17186.0500
4092.0000;17167.8900
4093.0000;17209.1900
4094.0000;17181.3500
4095.0000;17171.3600
4096.0000;17222.6200
4097.0000;17193.4400
4098.0000;17183.8800
4099.0000;17225.1300
4100.0000;17195.0500
4101.0000;17168.4400
4102.0000;17162.3200
4103.0000;17118.0900
4104.0000;17060.4800
4105.0000;16990.9600
4106.0000;16889.7700
4107.0000;16775.4300
4108.0000;16681.9700
4109.0000;16622.1200
4110.0000;16530.3600
4111.0000;16418.5100
4112.0000;16313.7100
4113.0000;16187.5500
4114.0000;16064.7700
4115.0000;15955.7100
4116.0000;15786.8200
4117.0000;15641.3000
4118.0000;15546.9000
4119.0000;15394.1400
4120.0000;15247.9900
4121.0000;15124.0100
4122.0000;14980.4100
4123.0000;14830.5000
4124.0000;14678.6500
4125.0000;14500.7900
4126.0000;14334.8700
4127.0000;14198.1100
4128.0000;14059.5800
4129.0000;13881.2800
4130.0000;13687.3700
4131.0000;13503.5500
4132.0000;13333.4100
4133.0000;13181.2600
4134.0000;13022.8800
4135.0000;12817.7700
4136.0000;12603.4500
4137.0000;12407.3400
4138.0000;12210.5500
4139.0000;11966.0600
4140.0000;11723.1800
4141.0000;11547.7700
4142.0000;11343.4300
4143.0000;11127.9800
4144.0000;10924.2700
4145.0000;10724.7500
4146.0000;10566.2100
4147.0000;10442.2400
4148.0000;10285.2900
4149.0000;10110.0800
4150.0000;9942.3050
4151.0000;9801.3100
4152.0000;9671.7290
4153.0000;9551.2970
4154.0000;9427.2320
4155.0000;9322.9210
4156.0000;9235.1540
4157.0000;9132.9030
4158.0000;8996.7930
4159.0000;8829.6800
4160.0000;8658.1480
4161.0000;8551.1710
4162.0000;8451.3340
4163.0000;8332.3540
4164.0000;8257.8330
4165.0000;8165.2220
4166.0000;8068.3650
4167.0000;8014.4690
4168.0000;7966.2460
4169.0000;7912.4900
4170.0000;7853.2340
4171.0000;7842.2200
4172.0000;7835.6270
4173.0000;7794.2450
4174.0000;7766.6830
4175.0000;7737.2090
4176.0000;7700.4440
4177.0000;7658.9130
4178.0000;7603.1850
4179.0000;7547.8740
4180.0000;7509.4350
4181.0000;7479.6330
4182.0000;7448.7020
4183.0000;7411.1980
4184.0000;7402.6310
4185.0000;7407.6720
4186.0000;7408.0710
4187.0000;7401.3270
4188.0000;7408.6280
4189.0000;7427.0560
4190.0000;7438.3650
4191.0000;7461.5040
4192.0000;7475.2380
4193.0000;7461.2030
4194.0000;7441.9290
4195.0000;7419.5000
4196.0000;7394.4440
4197.0000;7352.8930
4198.0000;7312.7960
4199.0000;7289.7660
4200.0000;7285.0950
4201.0000;7289.0260
4202.0000;7274.7090
4203.0000;7239.3980
4204.0000;7280.3280
4205.0000;7302.2420
4206.0000;7274.8170
4207.0000;7307.3090
4208.0000;7318.5770
4209.0000;7306.8720
4210.0000;7313.1090
4211.0000;7316.6160
4212.0000;7319.3250
4213.0000;7320.4420
4214.0000;7301.1930
4215.0000;7284.0790
4216.0000;7268.5260
4217.0000;7220.3220
4218.0000;7200.1760
4219.0000;7181.7640
4220.0000;7124.4590
4221.0000;7157.5770
4222.0000;7216.1720
4223.0000;7221.9120
4224.0000;7184.6040
4225.0000;7137.0690
4226.0000;7120.6170
4227.0000;7145.1480
4228.0000;7120.3980
4229.0000;7082.7850
4230.0000;7087.1180
4231.0000;7097.8850
4232.0000;7124.3720
4233.0000;7146.9470
4234.0000;7132.9630
4235.0000;7083.7160
4236.0000;6347.1980
4237.0000;4504.1000
4238.0000;2394.4510
