Raman Shift ; Dark Subtracted #1
-2.0000;3456.6910
-1.0000;3159.6070
0.0000;2778.2230
1.0000;2322.8930
2.0000;1811.8650
3.0000;1311.4690
4.0000;903.3582
5.0000;559.2899
6.0000;326.0491
7.0000;245.3258
8.0000;188.6507
9.0000;155.3979
10.0000;174.4105
11.0000;168.1508
12.0000;107.4218
13.0000;46.2764
14.0000;3.9411
15.0000;-5.1664
16.0000;8.9615
17.0000;20.2455
18.0000;16.3827
19.0000;10.3048
20.0000;3.9731
21.0000;-1.9328
22.0000;-5.8000
23.0000;-6.8241
24.0000;-3.8599
25.0000;1.3879
26.0000;5.4639
27.0000;5.4561
28.0000;2.7560
29.0000;-0.9064
30.0000;-4.4503
31.0000;-7.7725
32.0000;-10.1740
33.0000;-11.9003
34.0000;-11.6569
35.0000;-9.7398
36.0000;-6.6805
37.0000;-2.3734
38.0000;2.4580
39.0000;8.4604
40.0000;13.1183
41.0000;14.8258
42.0000;11.8547
43.0000;5.1836
44.0000;-0.6665
45.0000;-0.8710
46.0000;2.6499
47.0000;6.1529
48.0000;5.3164
49.0000;2.1721
50.0000;-0.5765
51.0000;-0.2877
52.0000;2.2491
53.0000;5.1687
54.0000;6.7134
55.0000;7.1076
56.0000;7.0213
57.0000;6.5001
58.0000;5.9362
59.0000;6.9401
60.0000;10.1590
61.0000;16.0547
62.0000;25.0031
63.0000;38.5146
64.0000;53.8943
65.0000;69.0072
66.0000;82.5888
67.0000;92.1630
68.0000;101.2643
69.0000;115.0823
70.0000;130.8433
71.0000;149.2966
72.0000;174.8935
73.0000;203.2227
74.0000;230.7334
75.0000;258.9461
76.0000;280.5828
77.0000;300.0367
78.0000;327.0672
79.0000;355.7859
80.0000;383.9349
81.0000;415.9807
82.0000;445.9684
83.0000;475.4631
84.0000;511.9578
85.0000;549.2647
86.0000;583.6207
87.0000;619.7555
88.0000;650.5042
89.0000;679.5240
90.0000;717.9948
91.0000;760.2906
92.0000;802.4932
93.0000;850.2930
94.0000;896.0861
95.0000;942.1637
96.0000;1001.2740
97.0000;1065.8160
98.0000;1123.0680
99.0000;1175.9780
100.0000;1214.0590
101.0000;1239.2180
102.0000;1274.0610
103.0000;1313.0730
104.0000;1351.5170
105.0000;1396.6770
106.0000;1443.2140
107.0000;1486.0810
108.0000;1535.2740
109.0000;1580.4030
110.0000;1617.6890
111.0000;1656.3800
112.0000;1690.5930
113.0000;1717.4360
114.0000;1752.7840
115.0000;1792.5200
116.0000;1828.1420
117.0000;1860.5680
118.0000;1884.4960
119.0000;1903.3870
120.0000;1931.7840
121.0000;1967.8270
122.0000;2002.2030
123.0000;2033.3610
124.0000;2056.3090
125.0000;2072.6330
126.0000;2092.7370
127.0000;2114.4350
128.0000;2134.5940
129.0000;2158.2620
130.0000;2183.0210
131.0000;2204.2420
132.0000;2222.4970
133.0000;2234.4570
134.0000;2243.6650
135.0000;2261.3170
136.0000;2286.8710
137.0000;2311.1760
138.0000;2329.1280
139.0000;2336.8870
140.0000;2338.5960
141.0000;2345.1670
142.0000;2356.7380
143.0000;2368.2070
144.0000;2381.2610
145.0000;2393.1990
146.0000;2402.0890
147.0000;2408.4520
148.0000;2409.9160
149.0000;2410.2840
150.0000;2417.6040
151.0000;2432.3100
152.0000;2445.0670
153.0000;2450.2060
154.0000;2444.6470
155.0000;2435.0620
156.0000;2429.8030
157.0000;2430.3740
158.0000;2432.5520
159.0000;2432.4920
160.0000;2430.1330
161.0000;2427.8410
162.0000;2426.5580
163.0000;2426.8870
164.0000;2429.2250
165.0000;2433.5520
166.0000;2440.0200
167.0000;2446.8820
168.0000;2453.9840
169.0000;2459.5290
170.0000;2462.8330
171.0000;2463.5340
172.0000;2460.8430
173.0000;2458.2950
174.0000;2460.7610
175.0000;2468.0680
176.0000;2475.7510
177.0000;2480.0770
178.0000;2480.3990
179.0000;2480.9010
180.0000;2486.8220
181.0000;2497.0010
182.0000;2506.6320
183.0000;2513.4680
184.0000;2515.6610
185.0000;2515.7370
186.0000;2517.3270
187.0000;2519.1300
188.0000;2521.5400
189.0000;2526.6300
190.0000;2532.6430
191.0000;2537.3520
192.0000;2538.5320
193.0000;2535.9850
194.0000;2532.8030
195.0000;2533.7490
196.0000;2536.9060
197.0000;2538.5280
198.0000;2533.5450
199.0000;2524.7500
200.0000;2519.1530
201.0000;2524.9210
202.0000;2538.3230
203.0000;2548.8320
204.0000;2545.8750
205.0000;2533.1880
206.0000;2520.4110
207.0000;2515.2910
208.0000;2516.9300
209.0000;2523.3240
210.0000;2533.4690
211.0000;2545.4030
212.0000;2554.4410
213.0000;2555.8410
214.0000;2550.6250
215.0000;2544.2000
216.0000;2541.8650
217.0000;2541.6780
218.0000;2543.2240
219.0000;2545.0340
220.0000;2548.9990
221.0000;2555.6150
222.0000;2566.0930
223.0000;2577.5020
224.0000;2586.5310
225.0000;2592.2950
226.0000;2592.3350
227.0000;2588.1030
228.0000;2578.3540
229.0000;2568.0350
230.0000;2565.4250
231.0000;2576.3340
232.0000;2594.3570
233.0000;2609.6390
234.0000;2616.2070
235.0000;2617.0780
236.0000;2617.2720
237.0000;2618.5510
238.0000;2619.1350
239.0000;2620.5700
240.0000;2622.9060
241.0000;2627.3330
242.0000;2636.4820
243.0000;2652.3590
244.0000;2666.2140
245.0000;2670.1100
246.0000;2659.4210
247.0000;2645.0520
248.0000;2641.6760
249.0000;2653.1440
250.0000;2667.1680
251.0000;2673.0310
252.0000;2667.3380
253.0000;2658.4660
254.0000;2655.0190
255.0000;2657.9610
256.0000;2663.1380
257.0000;2666.4530
258.0000;2667.9590
259.0000;2670.0730
260.0000;2676.1490
261.0000;2684.2900
262.0000;2690.7810
263.0000;2691.5120
264.0000;2686.2890
265.0000;2680.8560
266.0000;2681.6910
267.0000;2687.4430
268.0000;2694.1810
269.0000;2698.0650
270.0000;2699.7950
271.0000;2701.6680
272.0000;2706.1610
273.0000;2711.6850
274.0000;2717.8250
275.0000;2725.2480
276.0000;2732.0340
277.0000;2738.0000
278.0000;2743.7620
279.0000;2747.7300
280.0000;2751.9990
281.0000;2758.7040
282.0000;2765.4420
283.0000;2772.7220
284.0000;2781.6760
285.0000;2789.2170
286.0000;2795.1720
287.0000;2799.1230
288.0000;2800.5220
289.0000;2802.8610
290.0000;2808.7500
291.0000;2813.2490
292.0000;2814.3880
293.0000;2810.6720
294.0000;2803.9750
295.0000;2797.4550
296.0000;2792.4260
297.0000;2789.2490
298.0000;2787.4980
299.0000;2787.8400
300.0000;2790.6250
301.0000;2794.4810
302.0000;2799.0320
303.0000;2804.7480
304.0000;2812.3060
305.0000;2820.5740
306.0000;2827.6370
307.0000;2833.5310
308.0000;2836.3490
309.0000;2836.2970
310.0000;2834.6410
311.0000;2831.1770
312.0000;2829.2610
313.0000;2832.7640
314.0000;2840.9210
315.0000;2849.6770
316.0000;2857.1870
317.0000;2862.0730
318.0000;2864.3450
319.0000;2864.1280
320.0000;2861.2910
321.0000;2859.8340
322.0000;2863.0790
323.0000;2869.2500
324.0000;2876.9510
325.0000;2884.8200
326.0000;2892.0300
327.0000;2898.4100
328.0000;2903.3160
329.0000;2906.7620
330.0000;2912.6260
331.0000;2922.8640
332.0000;2933.2020
333.0000;2941.3670
334.0000;2946.0490
335.0000;2946.7150
336.0000;2945.4440
337.0000;2942.0000
338.0000;2938.7340
339.0000;2940.3560
340.0000;2948.0520
341.0000;2955.8840
342.0000;2958.3830
343.0000;2954.5430
344.0000;2950.0890
345.0000;2950.2840
346.0000;2955.2250
347.0000;2962.6580
348.0000;2971.8720
349.0000;2981.7670
350.0000;2989.6920
351.0000;2995.2720
352.0000;2996.7620
353.0000;2996.7780
354.0000;2999.5930
355.0000;3002.0210
356.0000;3003.2170
357.0000;3002.3230
358.0000;3000.3980
359.0000;2999.9610
360.0000;3003.1980
361.0000;3008.0540
362.0000;3012.9780
363.0000;3016.9950
364.0000;3018.9670
365.0000;3018.0070
366.0000;3012.8570
367.0000;3007.3640
368.0000;3007.9370
369.0000;3016.9240
370.0000;3026.5380
371.0000;3026.6980
372.0000;3015.0730
373.0000;3003.4110
374.0000;3002.3580
375.0000;3013.3480
376.0000;3029.5300
377.0000;3044.1380
378.0000;3056.0200
379.0000;3063.0330
380.0000;3063.3800
381.0000;3057.4780
382.0000;3055.0050
383.0000;3069.1940
384.0000;3091.0940
385.0000;3109.6000
386.0000;3114.9550
387.0000;3109.1190
388.0000;3100.5680
389.0000;3095.0870
390.0000;3091.3750
391.0000;3092.6890
392.0000;3102.0950
393.0000;3114.2290
394.0000;3122.6950
395.0000;3122.8230
396.0000;3119.5930
397.0000;3120.0570
398.0000;3126.0930
399.0000;3132.8220
400.0000;3136.9340
401.0000;3137.4090
402.0000;3136.3100
403.0000;3136.3380
404.0000;3137.2730
405.0000;3139.1010
406.0000;3142.7900
407.0000;3147.4680
408.0000;3152.0410
409.0000;3154.1330
410.0000;3154.9440
411.0000;3158.6130
412.0000;3171.0070
413.0000;3186.4400
414.0000;3197.9780
415.0000;3200.6630
416.0000;3196.4180
417.0000;3192.4180
418.0000;3192.6620
419.0000;3195.0940
420.0000;3200.5740
421.0000;3209.6990
422.0000;3218.3710
423.0000;3221.9410
424.0000;3218.1640
425.0000;3210.6240
426.0000;3204.2030
427.0000;3200.1380
428.0000;3199.6770
429.0000;3204.2180
430.0000;3214.0310
431.0000;3224.3580
432.0000;3232.0810
433.0000;3235.5760
434.0000;3236.2240
435.0000;3236.3950
436.0000;3234.4100
437.0000;3232.3650
438.0000;3231.7340
439.0000;3232.5020
440.0000;3235.1420
441.0000;3240.3250
442.0000;3246.3700
443.0000;3251.1150
444.0000;3253.3300
445.0000;3253.8210
446.0000;3255.2040
447.0000;3257.8910
448.0000;3260.6280
449.0000;3263.4430
450.0000;3265.8040
451.0000;3268.5560
452.0000;3273.6560
453.0000;3280.0070
454.0000;3285.4010
455.0000;3288.4100
456.0000;3288.7720
457.0000;3290.2880
458.0000;3297.1100
459.0000;3306.7510
460.0000;3316.9740
461.0000;3329.3210
462.0000;3338.8550
463.0000;3343.8130
464.0000;3341.7940
465.0000;3335.8760
466.0000;3334.7100
467.0000;3342.6220
468.0000;3352.5320
469.0000;3358.2000
470.0000;3357.4580
471.0000;3354.2100
472.0000;3352.6810
473.0000;3353.3860
474.0000;3357.6700
475.0000;3367.8050
476.0000;3382.5300
477.0000;3397.4920
478.0000;3412.2480
479.0000;3421.6690
480.0000;3424.0000
481.0000;3418.1170
482.0000;3405.4980
483.0000;3396.4110
484.0000;3398.2200
485.0000;3406.3230
486.0000;3414.9370
487.0000;3421.4850
488.0000;3425.8540
489.0000;3427.5940
490.0000;3425.6210
491.0000;3421.4710
492.0000;3418.0980
493.0000;3416.0540
494.0000;3415.7060
495.0000;3417.0330
496.0000;3420.6140
497.0000;3425.7880
498.0000;3431.2600
499.0000;3437.1390
500.0000;3444.2000
501.0000;3456.0940
502.0000;3466.7810
503.0000;3472.5550
504.0000;3470.3450
505.0000;3462.4510
506.0000;3456.7310
507.0000;3457.8960
508.0000;3459.2380
509.0000;3453.1350
510.0000;3438.1870
511.0000;3425.2460
512.0000;3423.4520
513.0000;3435.0290
514.0000;3451.7740
515.0000;3465.3620
516.0000;3474.8540
517.0000;3480.8610
518.0000;3484.8760
519.0000;3484.4280
520.0000;3483.2050
521.0000;3483.1980
522.0000;3485.0280
523.0000;3491.8260
524.0000;3506.1690
525.0000;3523.2250
526.0000;3539.8510
527.0000;3553.0290
528.0000;3563.0510
529.0000;3575.1080
530.0000;3586.2890
531.0000;3594.8770
532.0000;3602.8870
533.0000;3607.9650
534.0000;3613.2120
535.0000;3622.9780
536.0000;3634.6660
537.0000;3648.4000
538.0000;3666.5670
539.0000;3683.9170
540.0000;3701.8940
541.0000;3722.0330
542.0000;3737.7230
543.0000;3748.8480
544.0000;3753.6660
545.0000;3753.8700
546.0000;3758.4290
547.0000;3767.2440
548.0000;3777.1260
549.0000;3788.7810
550.0000;3799.2630
551.0000;3807.9110
552.0000;3815.9820
553.0000;3820.8840
554.0000;3824.8000
555.0000;3832.4270
556.0000;3839.2620
557.0000;3844.3650
558.0000;3846.2330
559.0000;3847.5970
560.0000;3854.5850
561.0000;3869.4290
562.0000;3886.7450
563.0000;3902.6790
564.0000;3914.4700
565.0000;3920.5120
566.0000;3922.2810
567.0000;3917.5090
568.0000;3911.4090
569.0000;3910.5400
570.0000;3912.9500
571.0000;3916.0840
572.0000;3919.0310
573.0000;3920.8190
574.0000;3920.2910
575.0000;3916.3420
576.0000;3910.5400
577.0000;3905.6030
578.0000;3903.4780
579.0000;3900.3190
580.0000;3890.4370
581.0000;3875.0620
582.0000;3862.6370
583.0000;3862.1150
584.0000;3872.6920
585.0000;3881.5140
586.0000;3873.9160
587.0000;3859.0170
588.0000;3848.6760
589.0000;3853.8230
590.0000;3866.1980
591.0000;3873.4810
592.0000;3869.2400
593.0000;3862.0560
594.0000;3860.0700
595.0000;3865.3990
596.0000;3873.4740
597.0000;3880.8850
598.0000;3886.4680
599.0000;3887.8840
600.0000;3885.6630
601.0000;3877.7030
602.0000;3864.4880
603.0000;3843.2350
604.0000;3823.5090
605.0000;3813.2010
606.0000;3819.8340
607.0000;3836.2700
608.0000;3846.7890
609.0000;3846.5160
610.0000;3842.7010
611.0000;3841.8090
612.0000;3843.8360
613.0000;3847.9490
614.0000;3856.0020
615.0000;3865.5340
616.0000;3871.7100
617.0000;3870.3980
618.0000;3864.0670
619.0000;3860.8880
620.0000;3866.8560
621.0000;3875.3580
622.0000;3881.0350
623.0000;3880.9350
624.0000;3876.7240
625.0000;3869.2360
626.0000;3859.3880
627.0000;3853.3010
628.0000;3857.5360
629.0000;3870.7890
630.0000;3882.2000
631.0000;3882.9480
632.0000;3875.8780
633.0000;3868.0720
634.0000;3863.9230
635.0000;3861.9020
636.0000;3862.7720
637.0000;3867.6800
638.0000;3870.5460
639.0000;3861.6850
640.0000;3841.0520
641.0000;3823.2660
642.0000;3820.6380
643.0000;3832.9670
644.0000;3846.3500
645.0000;3846.5250
646.0000;3840.6490
647.0000;3836.4370
648.0000;3839.7740
649.0000;3845.1210
650.0000;3848.1280
651.0000;3847.3170
652.0000;3842.8200
653.0000;3834.4010
654.0000;3822.9310
655.0000;3813.5970
656.0000;3811.7060
657.0000;3816.2200
658.0000;3817.4000
659.0000;3803.3080
660.0000;3784.3030
661.0000;3771.5280
662.0000;3772.8750
663.0000;3779.8260
664.0000;3777.6610
665.0000;3762.2280
666.0000;3745.8150
667.0000;3738.5270
668.0000;3741.8120
669.0000;3747.3120
670.0000;3745.4520
671.0000;3739.2950
672.0000;3731.7100
673.0000;3723.0580
674.0000;3716.3340
675.0000;3713.9070
676.0000;3718.3720
677.0000;3724.5100
678.0000;3723.2500
679.0000;3713.0360
680.0000;3703.3330
681.0000;3702.9080
682.0000;3711.2670
683.0000;3718.8900
684.0000;3715.7790
685.0000;3706.8830
686.0000;3699.9230
687.0000;3700.4660
688.0000;3704.9080
689.0000;3708.9150
690.0000;3711.0050
691.0000;3711.0040
692.0000;3707.4170
693.0000;3700.4710
694.0000;3695.1960
695.0000;3695.8090
696.0000;3702.3880
697.0000;3711.4610
698.0000;3720.8930
699.0000;3729.2650
700.0000;3735.3660
701.0000;3738.0100
702.0000;3737.1000
703.0000;3736.3710
704.0000;3736.0170
705.0000;3734.8500
706.0000;3731.7280
707.0000;3728.0970
708.0000;3727.8420
709.0000;3735.0970
710.0000;3746.6490
711.0000;3756.4050
712.0000;3760.8070
713.0000;3759.9440
714.0000;3755.9060
715.0000;3748.9110
716.0000;3742.9890
717.0000;3745.2180
718.0000;3755.0020
719.0000;3762.3300
720.0000;3755.6870
721.0000;3740.7920
722.0000;3729.7440
723.0000;3731.1620
724.0000;3742.0630
725.0000;3758.3160
726.0000;3779.1500
727.0000;3794.8610
728.0000;3793.1210
729.0000;3772.0740
730.0000;3749.9430
731.0000;3746.5870
732.0000;3758.4320
733.0000;3772.4140
734.0000;3776.2990
735.0000;3776.0910
736.0000;3776.1580
737.0000;3778.3460
738.0000;3780.8360
739.0000;3783.6310
740.0000;3786.4690
741.0000;3791.0240
742.0000;3801.1060
743.0000;3812.9470
744.0000;3820.0000
745.0000;3817.0340
746.0000;3806.8740
747.0000;3798.7400
748.0000;3798.2150
749.0000;3800.0640
750.0000;3798.3260
751.0000;3792.5560
752.0000;3787.9980
753.0000;3789.5110
754.0000;3796.0970
755.0000;3802.2000
756.0000;3803.6650
757.0000;3800.6280
758.0000;3793.5450
759.0000;3782.1530
760.0000;3771.5720
761.0000;3767.4580
762.0000;3772.7560
763.0000;3782.1500
764.0000;3789.6180
765.0000;3794.3770
766.0000;3796.6000
767.0000;3795.0450
768.0000;3791.5330
769.0000;3791.8020
770.0000;3798.8770
771.0000;3810.2790
772.0000;3823.7460
773.0000;3837.6270
774.0000;3847.7750
775.0000;3851.1790
776.0000;3846.4520
777.0000;3841.0000
778.0000;3843.3590
779.0000;3847.8920
780.0000;3850.3340
781.0000;3847.4060
782.0000;3844.2870
783.0000;3847.3080
784.0000;3857.0300
785.0000;3865.8170
786.0000;3864.7440
787.0000;3856.0320
788.0000;3850.0260
789.0000;3856.8640
790.0000;3868.2400
791.0000;3874.2800
792.0000;3868.2850
793.0000;3860.7860
794.0000;3863.9560
795.0000;3879.2240
796.0000;3896.7840
797.0000;3912.3250
798.0000;3921.3300
799.0000;3922.3530
800.0000;3914.1520
801.0000;3899.8170
802.0000;3889.1480
803.0000;3887.5030
804.0000;3891.3410
805.0000;3895.9240
806.0000;3901.4040
807.0000;3907.4050
808.0000;3915.2680
809.0000;3920.3690
810.0000;3917.1690
811.0000;3900.9710
812.0000;3880.0310
813.0000;3867.3940
814.0000;3868.1600
815.0000;3876.6350
816.0000;3884.1590
817.0000;3891.3310
818.0000;3895.7490
819.0000;3893.6380
820.0000;3887.9100
821.0000;3886.8760
822.0000;3896.0310
823.0000;3906.8870
824.0000;3909.8840
825.0000;3902.7870
826.0000;3892.8900
827.0000;3887.2080
828.0000;3886.4330
829.0000;3890.3210
830.0000;3899.8940
831.0000;3911.7220
832.0000;3919.3730
833.0000;3919.7840
834.0000;3915.0350
835.0000;3909.7710
836.0000;3904.3070
837.0000;3899.5710
838.0000;3897.4800
839.0000;3897.9590
840.0000;3897.7520
841.0000;3894.0010
842.0000;3890.5550
843.0000;3889.7720
844.0000;3892.6060
845.0000;3898.3540
846.0000;3906.3040
847.0000;3914.9690
848.0000;3921.3490
849.0000;3923.2170
850.0000;3921.3420
851.0000;3921.2460
852.0000;3925.6710
853.0000;3930.2150
854.0000;3930.6150
855.0000;3927.1040
856.0000;3926.6350
857.0000;3939.0630
858.0000;3957.2630
859.0000;3968.7100
860.0000;3964.3570
861.0000;3951.4850
862.0000;3941.9010
863.0000;3939.0240
864.0000;3941.8410
865.0000;3951.2380
866.0000;3965.8370
867.0000;3977.6160
868.0000;3979.2180
869.0000;3974.3910
870.0000;3972.9180
871.0000;3978.9410
872.0000;3986.6660
873.0000;3992.9440
874.0000;3996.2150
875.0000;3996.3220
876.0000;3991.9130
877.0000;3985.7320
878.0000;3986.0760
879.0000;3999.7960
880.0000;4016.7830
881.0000;4025.6530
882.0000;4022.2560
883.0000;4013.9980
884.0000;4008.7600
885.0000;4006.2170
886.0000;4007.4070
887.0000;4013.2840
888.0000;4022.7460
889.0000;4031.6980
890.0000;4037.6230
891.0000;4044.8230
892.0000;4060.3970
893.0000;4079.8570
894.0000;4094.4000
895.0000;4098.0430
896.0000;4092.8380
897.0000;4091.6790
898.0000;4100.5810
899.0000;4111.3500
900.0000;4118.9680
901.0000;4121.6580
902.0000;4122.3080
903.0000;4123.8970
904.0000;4125.7970
905.0000;4131.2740
906.0000;4143.4810
907.0000;4155.0290
908.0000;4157.7930
909.0000;4149.5520
910.0000;4144.4080
911.0000;4160.3000
912.0000;4189.3750
913.0000;4210.9510
914.0000;4212.6270
915.0000;4201.7860
916.0000;4192.9950
917.0000;4189.8430
918.0000;4191.7570
919.0000;4200.8090
920.0000;4215.8190
921.0000;4230.3430
922.0000;4239.9670
923.0000;4244.2900
924.0000;4247.5080
925.0000;4249.9060
926.0000;4252.2320
927.0000;4259.8060
928.0000;4270.6930
929.0000;4279.0000
930.0000;4281.5930
931.0000;4279.4220
932.0000;4278.6480
933.0000;4281.5680
934.0000;4287.0200
935.0000;4296.1260
936.0000;4307.1980
937.0000;4317.6980
938.0000;4327.8890
939.0000;4333.8460
940.0000;4335.9480
941.0000;4333.8060
942.0000;4329.0890
943.0000;4328.0300
944.0000;4330.7960
945.0000;4334.3690
946.0000;4337.1470
947.0000;4338.1160
948.0000;4335.5410
949.0000;4327.4670
950.0000;4319.9500
951.0000;4320.9190
952.0000;4331.5130
953.0000;4341.9430
954.0000;4343.6800
955.0000;4337.6160
956.0000;4327.9210
957.0000;4316.3390
958.0000;4307.5020
959.0000;4307.5780
960.0000;4318.6820
961.0000;4331.9100
962.0000;4336.7340
963.0000;4335.1240
964.0000;4332.2300
965.0000;4331.2350
966.0000;4330.7520
967.0000;4331.3790
968.0000;4333.4880
969.0000;4337.3870
970.0000;4344.2710
971.0000;4351.9020
972.0000;4357.8290
973.0000;4359.0170
974.0000;4358.8360
975.0000;4363.6370
976.0000;4373.6840
977.0000;4385.4260
978.0000;4396.8360
979.0000;4405.7820
980.0000;4412.7640
981.0000;4419.1190
982.0000;4420.5190
983.0000;4416.6170
984.0000;4406.7630
985.0000;4398.9260
986.0000;4399.5900
987.0000;4408.8940
988.0000;4423.2150
989.0000;4439.3790
990.0000;4456.0060
991.0000;4470.9790
992.0000;4480.7030
993.0000;4487.8280
994.0000;4500.5580
995.0000;4511.0960
996.0000;4514.6250
997.0000;4508.1570
998.0000;4496.0850
999.0000;4490.0360
1000.0000;4491.4440
1001.0000;4491.7610
1002.0000;4480.3070
1003.0000;4464.9170
1004.0000;4457.4480
1005.0000;4465.5370
1006.0000;4479.6430
1007.0000;4484.5730
1008.0000;4479.0540
1009.0000;4472.8400
1010.0000;4472.6410
1011.0000;4478.6210
1012.0000;4492.7200
1013.0000;4516.9740
1014.0000;4538.8800
1015.0000;4548.0410
1016.0000;4540.1980
1017.0000;4529.7600
1018.0000;4531.3790
1019.0000;4539.4830
1020.0000;4551.0340
1021.0000;4564.6670
1022.0000;4576.1260
1023.0000;4583.2670
1024.0000;4583.2920
1025.0000;4580.8160
1026.0000;4581.2630
1027.0000;4581.9970
1028.0000;4583.3060
1029.0000;4584.9250
1030.0000;4590.0790
1031.0000;4605.8320
1032.0000;4626.4430
1033.0000;4634.6320
1034.0000;4613.6090
1035.0000;4582.4020
1036.0000;4570.5060
1037.0000;4587.8190
1038.0000;4615.8640
1039.0000;4635.2410
1040.0000;4646.1750
1041.0000;4653.1380
1042.0000;4658.3230
1043.0000;4659.6450
1044.0000;4663.4780
1045.0000;4669.8360
1046.0000;4677.1560
1047.0000;4685.4070
1048.0000;4693.9460
1049.0000;4705.6420
1050.0000;4721.8020
1051.0000;4737.5720
1052.0000;4752.3330
1053.0000;4763.2600
1054.0000;4770.6520
1055.0000;4779.9410
1056.0000;4785.3540
1057.0000;4789.1410
1058.0000;4791.3930
1059.0000;4792.0360
1060.0000;4792.1090
1061.0000;4793.3060
1062.0000;4803.0620
1063.0000;4831.3040
1064.0000;4863.3370
1065.0000;4882.1920
1066.0000;4878.8600
1067.0000;4871.5460
1068.0000;4884.1010
1069.0000;4909.2110
1070.0000;4936.0820
1071.0000;4959.8130
1072.0000;4975.2660
1073.0000;4983.9590
1074.0000;4982.3550
1075.0000;4978.1020
1076.0000;4985.7110
1077.0000;4996.6520
1078.0000;5002.0620
1079.0000;4995.6360
1080.0000;4988.5600
1081.0000;4994.0200
1082.0000;5012.8500
1083.0000;5035.4230
1084.0000;5056.9820
1085.0000;5074.5840
1086.0000;5090.4940
1087.0000;5102.3400
1088.0000;5109.0590
1089.0000;5117.1270
1090.0000;5122.5790
1091.0000;5128.0600
1092.0000;5136.8330
1093.0000;5143.4070
1094.0000;5146.0650
1095.0000;5143.4270
1096.0000;5140.6380
1097.0000;5147.2040
1098.0000;5155.3730
1099.0000;5155.1830
1100.0000;5141.1440
1101.0000;5122.0230
1102.0000;5108.0520
1103.0000;5101.0530
1104.0000;5095.1670
1105.0000;5083.1280
1106.0000;5072.2730
1107.0000;5063.5380
1108.0000;5059.5470
1109.0000;5056.6660
1110.0000;5046.5710
1111.0000;5034.7640
1112.0000;5028.4770
1113.0000;5032.7440
1114.0000;5039.2820
1115.0000;5036.8660
1116.0000;5023.8040
1117.0000;5002.0730
1118.0000;4971.3340
1119.0000;4937.3140
1120.0000;4906.3740
1121.0000;4883.6100
1122.0000;4867.5770
1123.0000;4847.4320
1124.0000;4830.2030
1125.0000;4811.5200
1126.0000;4785.8890
1127.0000;4766.2440
1128.0000;4754.8810
1129.0000;4757.0450
1130.0000;4765.0580
1131.0000;4768.9320
1132.0000;4770.1170
1133.0000;4764.8230
1134.0000;4749.9200
1135.0000;4735.8850
1136.0000;4735.5780
1137.0000;4745.6790
1138.0000;4746.5170
1139.0000;4721.3870
1140.0000;4687.0570
1141.0000;4657.7240
1142.0000;4642.3400
1143.0000;4635.7240
1144.0000;4629.3980
1145.0000;4629.0250
1146.0000;4626.8810
1147.0000;4620.1230
1148.0000;4610.9960
1149.0000;4598.6370
1150.0000;4585.0660
1151.0000;4573.1440
1152.0000;4562.5900
1153.0000;4556.8220
1154.0000;4552.3190
1155.0000;4550.2710
1156.0000;4546.7110
1157.0000;4533.9850
1158.0000;4518.5210
1159.0000;4508.0000
1160.0000;4506.6340
1161.0000;4509.0360
1162.0000;4507.1040
1163.0000;4501.2020
1164.0000;4489.0510
1165.0000;4467.4090
1166.0000;4445.3320
1167.0000;4431.0210
1168.0000;4429.7780
1169.0000;4437.6790
1170.0000;4449.1060
1171.0000;4462.8520
1172.0000;4468.4350
1173.0000;4460.7100
1174.0000;4447.8870
1175.0000;4440.4970
1176.0000;4438.4180
1177.0000;4439.7710
1178.0000;4444.4230
1179.0000;4449.0730
1180.0000;4446.0630
1181.0000;4435.6180
1182.0000;4426.0000
1183.0000;4424.5540
1184.0000;4428.8700
1185.0000;4433.6970
1186.0000;4437.3110
1187.0000;4438.1320
1188.0000;4434.9290
1189.0000;4426.9510
1190.0000;4415.8060
1191.0000;4401.1990
1192.0000;4389.2690
1193.0000;4384.3070
1194.0000;4388.0760
1195.0000;4393.0100
1196.0000;4391.0800
1197.0000;4387.7950
1198.0000;4387.1900
1199.0000;4390.1320
1200.0000;4390.9750
1201.0000;4383.3190
1202.0000;4372.1140
1203.0000;4365.8740
1204.0000;4368.9760
1205.0000;4376.9340
1206.0000;4383.4110
1207.0000;4388.8760
1208.0000;4393.8880
1209.0000;4399.6930
1210.0000;4401.3750
1211.0000;4395.4560
1212.0000;4382.3860
1213.0000;4373.7600
1214.0000;4380.7790
1215.0000;4395.3590
1216.0000;4404.1650
1217.0000;4402.9020
1218.0000;4395.8840
1219.0000;4385.0370
1220.0000;4374.2730
1221.0000;4373.0970
1222.0000;4387.6040
1223.0000;4404.3280
1224.0000;4406.1350
1225.0000;4395.5720
1226.0000;4388.4000
1227.0000;4396.3630
1228.0000;4406.5730
1229.0000;4404.5640
1230.0000;4389.8890
1231.0000;4377.0510
1232.0000;4378.8700
1233.0000;4387.6740
1234.0000;4390.0210
1235.0000;4382.8600
1236.0000;4377.6290
1237.0000;4385.3600
1238.0000;4399.6400
1239.0000;4408.7500
1240.0000;4406.8040
1241.0000;4399.9030
1242.0000;4396.7920
1243.0000;4395.1250
1244.0000;4390.5160
1245.0000;4380.1040
1246.0000;4370.0640
1247.0000;4366.1210
1248.0000;4369.0000
1249.0000;4369.8100
1250.0000;4357.4560
1251.0000;4345.5200
1252.0000;4348.8710
1253.0000;4370.2240
1254.0000;4389.0880
1255.0000;4384.6000
1256.0000;4367.5710
1257.0000;4359.2950
1258.0000;4367.0330
1259.0000;4375.8250
1260.0000;4370.8960
1261.0000;4358.2800
1262.0000;4349.6780
1263.0000;4351.2580
1264.0000;4357.9320
1265.0000;4363.1660
1266.0000;4366.8980
1267.0000;4368.2640
1268.0000;4365.9490
1269.0000;4362.1600
1270.0000;4361.8560
1271.0000;4364.8940
1272.0000;4365.9740
1273.0000;4359.8720
1274.0000;4352.9200
1275.0000;4352.7080
1276.0000;4361.2430
1277.0000;4370.4240
1278.0000;4372.1280
1279.0000;4371.0680
1280.0000;4376.2540
1281.0000;4389.3770
1282.0000;4399.2670
1283.0000;4396.1180
1284.0000;4383.5770
1285.0000;4376.2150
1286.0000;4380.2060
1287.0000;4387.7600
1288.0000;4390.6220
1289.0000;4390.3630
1290.0000;4391.4840
1291.0000;4395.8890
1292.0000;4402.2470
1293.0000;4411.2090
1294.0000;4420.2030
1295.0000;4424.6800
1296.0000;4420.7380
1297.0000;4413.1330
1298.0000;4411.0200
1299.0000;4415.3280
1300.0000;4421.0120
1301.0000;4424.2180
1302.0000;4426.5200
1303.0000;4430.7360
1304.0000;4435.9360
1305.0000;4438.3980
1306.0000;4432.7950
1307.0000;4426.1290
1308.0000;4430.6800
1309.0000;4450.5480
1310.0000;4469.1500
1311.0000;4473.8040
1312.0000;4466.4200
1313.0000;4458.4170
1314.0000;4454.1160
1315.0000;4451.6060
1316.0000;4450.9230
1317.0000;4452.8680
1318.0000;4456.0470
1319.0000;4460.1360
1320.0000;4460.4180
1321.0000;4450.6310
1322.0000;4433.7790
1323.0000;4421.1960
1324.0000;4418.2250
1325.0000;4424.3540
1326.0000;4436.3810
1327.0000;4452.0730
1328.0000;4463.6180
1329.0000;4463.8770
1330.0000;4457.6940
1331.0000;4455.9370
1332.0000;4457.8060
1333.0000;4458.6750
1334.0000;4455.6440
1335.0000;4451.5930
1336.0000;4450.2110
1337.0000;4451.6340
1338.0000;4451.4280
1339.0000;4445.4600
1340.0000;4437.6980
1341.0000;4431.6470
1342.0000;4429.1740
1343.0000;4427.6000
1344.0000;4421.2520
1345.0000;4416.9710
1346.0000;4419.9560
1347.0000;4431.7410
1348.0000;4441.3570
1349.0000;4440.1250
1350.0000;4430.2180
1351.0000;4419.2160
1352.0000;4409.2740
1353.0000;4402.3370
1354.0000;4397.2110
1355.0000;4398.5450
1356.0000;4407.7920
1357.0000;4425.0480
1358.0000;4437.7170
1359.0000;4430.9360
1360.0000;4410.3840
1361.0000;4395.0840
1362.0000;4392.6060
1363.0000;4396.0550
1364.0000;4397.2220
1365.0000;4398.4920
1366.0000;4398.3200
1367.0000;4395.5760
1368.0000;4393.3410
1369.0000;4394.8920
1370.0000;4398.9470
1371.0000;4400.8900
1372.0000;4398.0450
1373.0000;4395.4520
1374.0000;4399.1930
1375.0000;4406.6480
1376.0000;4410.0660
1377.0000;4404.6740
1378.0000;4398.6320
1379.0000;4400.2920
1380.0000;4408.9190
1381.0000;4419.6020
1382.0000;4430.5950
1383.0000;4435.7070
1384.0000;4427.8180
1385.0000;4410.1320
1386.0000;4401.4890
1387.0000;4414.2340
1388.0000;4434.5480
1389.0000;4445.7970
1390.0000;4447.7310
1391.0000;4449.2870
1392.0000;4455.8810
1393.0000;4459.3360
1394.0000;4455.2150
1395.0000;4444.4760
1396.0000;4436.7270
1397.0000;4438.9920
1398.0000;4444.1860
1399.0000;4441.4830
1400.0000;4433.8530
1401.0000;4432.0440
1402.0000;4443.2960
1403.0000;4457.4120
1404.0000;4462.9800
1405.0000;4459.1510
1406.0000;4453.5190
1407.0000;4450.5530
1408.0000;4448.7950
1409.0000;4447.0720
1410.0000;4447.6060
1411.0000;4454.5120
1412.0000;4471.9470
1413.0000;4487.2900
1414.0000;4486.7890
1415.0000;4470.7390
1416.0000;4456.1150
1417.0000;4454.2560
1418.0000;4457.5710
1419.0000;4457.2080
1420.0000;4454.6990
1421.0000;4453.0210
1422.0000;4453.4760
1423.0000;4454.2450
1424.0000;4452.2480
1425.0000;4448.7800
1426.0000;4447.5520
1427.0000;4450.9520
1428.0000;4455.6470
1429.0000;4456.3670
1430.0000;4454.6400
1431.0000;4456.9010
1432.0000;4466.6910
1433.0000;4478.0280
1434.0000;4485.6850
1435.0000;4488.5770
1436.0000;4491.7720
1437.0000;4497.8530
1438.0000;4501.1440
1439.0000;4499.9060
1440.0000;4493.2600
1441.0000;4484.3030
1442.0000;4475.9110
1443.0000;4466.6460
1444.0000;4453.1440
1445.0000;4440.1000
1446.0000;4431.3280
1447.0000;4428.8660
1448.0000;4432.6280
1449.0000;4438.5450
1450.0000;4446.1920
1451.0000;4451.1540
1452.0000;4450.6870
1453.0000;4448.3640
1454.0000;4449.1670
1455.0000;4451.4910
1456.0000;4455.4330
1457.0000;4460.6510
1458.0000;4460.2040
1459.0000;4446.7670
1460.0000;4426.5440
1461.0000;4409.3770
1462.0000;4400.6680
1463.0000;4403.1920
1464.0000;4419.2400
1465.0000;4440.8330
1466.0000;4444.8540
1467.0000;4425.4750
1468.0000;4404.2000
1469.0000;4402.3990
1470.0000;4411.7710
1471.0000;4420.4570
1472.0000;4425.4420
1473.0000;4427.2100
1474.0000;4423.9140
1475.0000;4418.4210
1476.0000;4419.1570
1477.0000;4425.9780
1478.0000;4428.8400
1479.0000;4416.5420
1480.0000;4404.1820
1481.0000;4413.4530
1482.0000;4442.4570
1483.0000;4460.5340
1484.0000;4445.5770
1485.0000;4420.7830
1486.0000;4417.0450
1487.0000;4432.2590
1488.0000;4443.3890
1489.0000;4436.2980
1490.0000;4423.5050
1491.0000;4416.6220
1492.0000;4416.4200
1493.0000;4421.3650
1494.0000;4431.7510
1495.0000;4441.8500
1496.0000;4445.6210
1497.0000;4442.4360
1498.0000;4437.4070
1499.0000;4432.5100
1500.0000;4430.6310
1501.0000;4435.6970
1502.0000;4445.3920
1503.0000;4454.6500
1504.0000;4460.2950
1505.0000;4458.8930
1506.0000;4445.3700
1507.0000;4428.7210
1508.0000;4426.2310
1509.0000;4442.9500
1510.0000;4456.8640
1511.0000;4448.3340
1512.0000;4430.3290
1513.0000;4420.9420
1514.0000;4423.1410
1515.0000;4429.4740
1516.0000;4433.9940
1517.0000;4439.5740
1518.0000;4447.2440
1519.0000;4454.2420
1520.0000;4456.3060
1521.0000;4449.1120
1522.0000;4441.5050
1523.0000;4445.1820
1524.0000;4458.9510
1525.0000;4475.2890
1526.0000;4490.8970
1527.0000;4496.5490
1528.0000;4484.1490
1529.0000;4458.6500
1530.0000;4441.5760
1531.0000;4442.4680
1532.0000;4452.4120
1533.0000;4462.7990
1534.0000;4472.0600
1535.0000;4472.4110
1536.0000;4461.4930
1537.0000;4448.1370
1538.0000;4440.9130
1539.0000;4438.8000
1540.0000;4437.2290
1541.0000;4437.8840
1542.0000;4443.7190
1543.0000;4458.6420
1544.0000;4471.3810
1545.0000;4468.0080
1546.0000;4449.6600
1547.0000;4435.0650
1548.0000;4435.1200
1549.0000;4443.4720
1550.0000;4454.3100
1551.0000;4464.5170
1552.0000;4465.8360
1553.0000;4452.7770
1554.0000;4438.9730
1555.0000;4439.3130
1556.0000;4449.3800
1557.0000;4457.5880
1558.0000;4460.7340
1559.0000;4463.7690
1560.0000;4471.4560
1561.0000;4478.5610
1562.0000;4484.4670
1563.0000;4486.0590
1564.0000;4478.7070
1565.0000;4460.0210
1566.0000;4436.2420
1567.0000;4413.9230
1568.0000;4399.3810
1569.0000;4393.0900
1570.0000;4396.2330
1571.0000;4406.1980
1572.0000;4414.0640
1573.0000;4418.5020
1574.0000;4415.6940
1575.0000;4403.5900
1576.0000;4391.4030
1577.0000;4388.2690
1578.0000;4392.0990
1579.0000;4394.1240
1580.0000;4393.9230
1581.0000;4398.8960
1582.0000;4415.2010
1583.0000;4432.4260
1584.0000;4440.1030
1585.0000;4435.6110
1586.0000;4428.7520
1587.0000;4426.2620
1588.0000;4422.6280
1589.0000;4413.9610
1590.0000;4404.1120
1591.0000;4399.0120
1592.0000;4402.0000
1593.0000;4406.1040
1594.0000;4400.5460
1595.0000;4393.0280
1596.0000;4394.1240
1597.0000;4405.2520
1598.0000;4411.7880
1599.0000;4399.2970
1600.0000;4382.9820
1601.0000;4380.3110
1602.0000;4392.7910
1603.0000;4409.9660
1604.0000;4425.1380
1605.0000;4435.4900
1606.0000;4439.5690
1607.0000;4434.2510
1608.0000;4425.9130
1609.0000;4416.8750
1610.0000;4409.5140
1611.0000;4405.0570
1612.0000;4407.3060
1613.0000;4418.5220
1614.0000;4437.1630
1615.0000;4444.0790
1616.0000;4424.5650
1617.0000;4395.1790
1618.0000;4381.4420
1619.0000;4384.7320
1620.0000;4392.2930
1621.0000;4398.0350
1622.0000;4402.8890
1623.0000;4402.0240
1624.0000;4398.3280
1625.0000;4400.0180
1626.0000;4408.9610
1627.0000;4418.2040
1628.0000;4423.6120
1629.0000;4424.2160
1630.0000;4422.8140
1631.0000;4418.8190
1632.0000;4413.0640
1633.0000;4406.2050
1634.0000;4403.1040
1635.0000;4408.8040
1636.0000;4421.1360
1637.0000;4431.0820
1638.0000;4433.6310
1639.0000;4433.2040
1640.0000;4436.7690
1641.0000;4438.2850
1642.0000;4433.0720
1643.0000;4421.5890
1644.0000;4415.8500
1645.0000;4426.2110
1646.0000;4437.7780
1647.0000;4429.5560
1648.0000;4408.5960
1649.0000;4399.5830
1650.0000;4415.4110
1651.0000;4434.9940
1652.0000;4439.1730
1653.0000;4433.3100
1654.0000;4429.4910
1655.0000;4429.0220
1656.0000;4425.3470
1657.0000;4413.2520
1658.0000;4402.8000
1659.0000;4403.4340
1660.0000;4414.7250
1661.0000;4424.2570
1662.0000;4427.0670
1663.0000;4420.4310
1664.0000;4400.4180
1665.0000;4374.0060
1666.0000;4354.2870
1667.0000;4347.2870
1668.0000;4350.2050
1669.0000;4360.0000
1670.0000;4371.0500
1671.0000;4366.2800
1672.0000;4348.9250
1673.0000;4337.6840
1674.0000;4341.2020
1675.0000;4349.1810
1676.0000;4349.2320
1677.0000;4346.8840
1678.0000;4348.2070
1679.0000;4353.9530
1680.0000;4360.3100
1681.0000;4366.7960
1682.0000;4368.7000
1683.0000;4363.5180
1684.0000;4351.4040
1685.0000;4335.9190
1686.0000;4320.0310
1687.0000;4312.7960
1688.0000;4322.0090
1689.0000;4339.8340
1690.0000;4346.6010
1691.0000;4337.6800
1692.0000;4325.1730
1693.0000;4315.8010
1694.0000;4311.8050
1695.0000;4317.4270
1696.0000;4329.6520
1697.0000;4335.7960
1698.0000;4329.7020
1699.0000;4320.4000
1700.0000;4317.3390
1701.0000;4316.0210
1702.0000;4310.0860
1703.0000;4301.5170
1704.0000;4297.3970
1705.0000;4301.3970
1706.0000;4309.8460
1707.0000;4317.2230
1708.0000;4322.0630
1709.0000;4323.7030
1710.0000;4320.7930
1711.0000;4313.1500
1712.0000;4301.9870
1713.0000;4289.4180
1714.0000;4274.5860
1715.0000;4264.3820
1716.0000;4269.8580
1717.0000;4297.8980
1718.0000;4319.7670
1719.0000;4302.0120
1720.0000;4264.1100
1721.0000;4247.0750
1722.0000;4258.4880
1723.0000;4268.7650
1724.0000;4256.4830
1725.0000;4243.1870
1726.0000;4245.7720
1727.0000;4263.2430
1728.0000;4284.2550
1729.0000;4303.9120
1730.0000;4316.0030
1731.0000;4319.1940
1732.0000;4309.2150
1733.0000;4291.8440
1734.0000;4270.6080
1735.0000;4256.6920
1736.0000;4257.4020
1737.0000;4268.6910
1738.0000;4282.1870
1739.0000;4295.0580
1740.0000;4297.9320
1741.0000;4288.5410
1742.0000;4280.8670
1743.0000;4285.0210
1744.0000;4294.9510
1745.0000;4306.6760
1746.0000;4316.7980
1747.0000;4321.3200
1748.0000;4317.1590
1749.0000;4306.4880
1750.0000;4291.3020
1751.0000;4277.5890
1752.0000;4272.2820
1753.0000;4277.8970
1754.0000;4286.2000
1755.0000;4293.5210
1756.0000;4298.1590
1757.0000;4296.6970
1758.0000;4291.3030
1759.0000;4289.6080
1760.0000;4292.0160
1761.0000;4292.8890
1762.0000;4289.4120
1763.0000;4284.6750
1764.0000;4281.5400
1765.0000;4280.0650
1766.0000;4278.7830
1767.0000;4277.9530
1768.0000;4277.0810
1769.0000;4274.6690
1770.0000;4273.9160
1771.0000;4277.0650
1772.0000;4283.3770
1773.0000;4290.1080
1774.0000;4295.6550
1775.0000;4299.0390
1776.0000;4299.9730
1777.0000;4299.6480
1778.0000;4305.3430
1779.0000;4312.9700
1780.0000;4311.0410
1781.0000;4294.7170
1782.0000;4277.0000
1783.0000;4269.1740
1784.0000;4267.6460
1785.0000;4260.5300
1786.0000;4250.6830
1787.0000;4245.8200
1788.0000;4249.3350
1789.0000;4256.0150
1790.0000;4259.1400
1791.0000;4259.2010
1792.0000;4256.1960
1793.0000;4250.6380
1794.0000;4247.9290
1795.0000;4252.1920
1796.0000;4255.3220
1797.0000;4249.1650
1798.0000;4236.6710
1799.0000;4221.9420
1800.0000;4209.1950
1801.0000;4202.0200
1802.0000;4204.1880
1803.0000;4209.6130
1804.0000;4205.5470
1805.0000;4197.0780
1806.0000;4191.6590
1807.0000;4192.2870
1808.0000;4196.8400
1809.0000;4206.4670
1810.0000;4210.6610
1811.0000;4193.6160
1812.0000;4165.9480
1813.0000;4157.7750
1814.0000;4178.5430
1815.0000;4202.7220
1816.0000;4210.6170
1817.0000;4207.7510
1818.0000;4201.4450
1819.0000;4190.5140
1820.0000;4179.9150
1821.0000;4172.2410
1822.0000;4165.7500
1823.0000;4155.6300
1824.0000;4151.6210
1825.0000;4159.9080
1826.0000;4177.3150
1827.0000;4187.4310
1828.0000;4183.5600
1829.0000;4173.3570
1830.0000;4163.3070
1831.0000;4155.0400
1832.0000;4151.7330
1833.0000;4155.1700
1834.0000;4162.2670
1835.0000;4171.3660
1836.0000;4174.3040
1837.0000;4161.5390
1838.0000;4146.3200
1839.0000;4147.6680
1840.0000;4162.6680
1841.0000;4169.9590
1842.0000;4161.5940
1843.0000;4149.4230
1844.0000;4140.3570
1845.0000;4138.0150
1846.0000;4148.4900
1847.0000;4166.9400
1848.0000;4169.8130
1849.0000;4148.0380
1850.0000;4133.6840
1851.0000;4156.3590
1852.0000;4189.6240
1853.0000;4199.9390
1854.0000;4188.4990
1855.0000;4179.3100
1856.0000;4179.3880
1857.0000;4178.1910
1858.0000;4168.7940
1859.0000;4160.1770
1860.0000;4159.2170
1861.0000;4166.8460
1862.0000;4178.2830
1863.0000;4190.8490
1864.0000;4197.5470
1865.0000;4190.4900
1866.0000;4182.2580
1867.0000;4194.5860
1868.0000;4218.1110
1869.0000;4229.0340
1870.0000;4219.5810
1871.0000;4207.1740
1872.0000;4205.4180
1873.0000;4206.8470
1874.0000;4205.1030
1875.0000;4202.4470
1876.0000;4200.9520
1877.0000;4201.3760
1878.0000;4203.3100
1879.0000;4205.8170
1880.0000;4210.2030
1881.0000;4216.4110
1882.0000;4224.5920
1883.0000;4238.6700
1884.0000;4254.8630
1885.0000;4263.1720
1886.0000;4257.7380
1887.0000;4244.5750
1888.0000;4232.7600
1889.0000;4225.4710
1890.0000;4229.1200
1891.0000;4243.2600
1892.0000;4252.2680
1893.0000;4246.6410
1894.0000;4236.7870
1895.0000;4230.9170
1896.0000;4230.4600
1897.0000;4239.1370
1898.0000;4254.1030
1899.0000;4262.1710
1900.0000;4256.4900
1901.0000;4247.3920
1902.0000;4245.9140
1903.0000;4247.8840
1904.0000;4250.3070
1905.0000;4252.5650
1906.0000;4252.9230
1907.0000;4250.3370
1908.0000;4245.0600
1909.0000;4235.7060
1910.0000;4229.8000
1911.0000;4237.4330
1912.0000;4252.2380
1913.0000;4253.8920
1914.0000;4238.4920
1915.0000;4229.1370
1916.0000;4243.7160
1917.0000;4256.9670
1918.0000;4236.2670
1919.0000;4206.5890
1920.0000;4213.1310
1921.0000;4257.2690
1922.0000;4292.0560
1923.0000;4291.3500
1924.0000;4277.2730
1925.0000;4275.9900
1926.0000;4275.5840
1927.0000;4270.2200
1928.0000;4261.7790
1929.0000;4255.1420
1930.0000;4253.2740
1931.0000;4251.4480
1932.0000;4244.2340
1933.0000;4237.7710
1934.0000;4234.2020
1935.0000;4237.0990
1936.0000;4250.7130
1937.0000;4273.5850
1938.0000;4280.8500
1939.0000;4253.7080
1940.0000;4223.4650
1941.0000;4227.7990
1942.0000;4253.5130
1943.0000;4266.8770
1944.0000;4266.1050
1945.0000;4271.3480
1946.0000;4291.0300
1947.0000;4309.7920
1948.0000;4319.1660
1949.0000;4319.2980
1950.0000;4320.6910
1951.0000;4319.7420
1952.0000;4313.1000
1953.0000;4301.0930
1954.0000;4295.9530
1955.0000;4308.3480
1956.0000;4322.3730
1957.0000;4317.0350
1958.0000;4299.7090
1959.0000;4289.3810
1960.0000;4290.1910
1961.0000;4294.5850
1962.0000;4299.0570
1963.0000;4304.2000
1964.0000;4307.7200
1965.0000;4310.6480
1966.0000;4316.1270
1967.0000;4322.8810
1968.0000;4329.6260
1969.0000;4335.4630
1970.0000;4343.6900
1971.0000;4359.0500
1972.0000;4370.9240
1973.0000;4372.3520
1974.0000;4364.6380
1975.0000;4361.2550
1976.0000;4363.5660
1977.0000;4364.1730
1978.0000;4359.6590
1979.0000;4359.0000
1980.0000;4371.4820
1981.0000;4386.7290
1982.0000;4391.3200
1983.0000;4384.2720
1984.0000;4375.5540
1985.0000;4368.4980
1986.0000;4363.8310
1987.0000;4362.1700
1988.0000;4366.6750
1989.0000;4378.3100
1990.0000;4393.3410
1991.0000;4404.8530
1992.0000;4408.9100
1993.0000;4408.2500
1994.0000;4403.6390
1995.0000;4397.9210
1996.0000;4395.8260
1997.0000;4396.3280
1998.0000;4397.5820
1999.0000;4399.8030
2000.0000;4401.7890
2001.0000;4402.8210
2002.0000;4402.4360
2003.0000;4399.9340
2004.0000;4399.3530
2005.0000;4407.1570
2006.0000;4415.2350
2007.0000;4411.0330
2008.0000;4397.6200
2009.0000;4392.8570
2010.0000;4402.8200
2011.0000;4410.9770
2012.0000;4405.6700
2013.0000;4400.0390
2014.0000;4408.5050
2015.0000;4422.7320
2016.0000;4430.2260
2017.0000;4427.9070
2018.0000;4419.6960
2019.0000;4406.9940
2020.0000;4402.3940
2021.0000;4416.9160
2022.0000;4436.8790
2023.0000;4444.3730
2024.0000;4440.5020
2025.0000;4436.4990
2026.0000;4432.8830
2027.0000;4426.5660
2028.0000;4417.4720
2029.0000;4410.3890
2030.0000;4408.6730
2031.0000;4411.1040
2032.0000;4410.5550
2033.0000;4410.4800
2034.0000;4416.4100
2035.0000;4428.0220
2036.0000;4438.3580
2037.0000;4443.1890
2038.0000;4443.5000
2039.0000;4446.3570
2040.0000;4442.2630
2041.0000;4422.3080
2042.0000;4396.1640
2043.0000;4387.9970
2044.0000;4404.3770
2045.0000;4416.6890
2046.0000;4407.1310
2047.0000;4394.6000
2048.0000;4394.7200
2049.0000;4400.2170
2050.0000;4399.6020
2051.0000;4396.0400
2052.0000;4398.6180
2053.0000;4408.2100
2054.0000;4414.9810
2055.0000;4412.4990
2056.0000;4407.2000
2057.0000;4406.7500
2058.0000;4408.3170
2059.0000;4408.4240
2060.0000;4409.0920
2061.0000;4415.6480
2062.0000;4427.8830
2063.0000;4439.3090
2064.0000;4445.3480
2065.0000;4445.0000
2066.0000;4441.1470
2067.0000;4432.7190
2068.0000;4425.2090
2069.0000;4418.9220
2070.0000;4410.1960
2071.0000;4400.6780
2072.0000;4399.6740
2073.0000;4412.1120
2074.0000;4426.4330
2075.0000;4430.6670
2076.0000;4426.5280
2077.0000;4419.7650
2078.0000;4410.3200
2079.0000;4401.4700
2080.0000;4396.1700
2081.0000;4393.9500
2082.0000;4394.3990
2083.0000;4402.6380
2084.0000;4422.5960
2085.0000;4442.0180
2086.0000;4446.6350
2087.0000;4439.2260
2088.0000;4444.4720
2089.0000;4461.3520
2090.0000;4462.8970
2091.0000;4437.9780
2092.0000;4417.2920
2093.0000;4429.5360
2094.0000;4453.0810
2095.0000;4457.9850
2096.0000;4452.4020
2097.0000;4456.6690
2098.0000;4467.9770
2099.0000;4469.1250
2100.0000;4453.4430
2101.0000;4441.4890
2102.0000;4447.7360
2103.0000;4463.6650
2104.0000;4483.8880
2105.0000;4497.9780
2106.0000;4490.3100
2107.0000;4464.7930
2108.0000;4454.2250
2109.0000;4468.2330
2110.0000;4481.3500
2111.0000;4477.4450
2112.0000;4469.8000
2113.0000;4470.1850
2114.0000;4473.0860
2115.0000;4472.2460
2116.0000;4470.1750
2117.0000;4475.0160
2118.0000;4485.9190
2119.0000;4487.4340
2120.0000;4471.7710
2121.0000;4456.2230
2122.0000;4453.6960
2123.0000;4462.9640
2124.0000;4480.6520
2125.0000;4500.6570
2126.0000;4511.5090
2127.0000;4508.2460
2128.0000;4496.5230
2129.0000;4479.2560
2130.0000;4467.7640
2131.0000;4472.4310
2132.0000;4482.3140
2133.0000;4481.6740
2134.0000;4476.2220
2135.0000;4473.7130
2136.0000;4472.5670
2137.0000;4468.1170
2138.0000;4460.2310
2139.0000;4450.2450
2140.0000;4439.3090
2141.0000;4433.2950
2142.0000;4433.8170
2143.0000;4442.4820
2144.0000;4457.2250
2145.0000;4471.6320
2146.0000;4473.2110
2147.0000;4462.1800
2148.0000;4462.2060
2149.0000;4478.6020
2150.0000;4485.6770
2151.0000;4467.7150
2152.0000;4446.4000
2153.0000;4444.5930
2154.0000;4451.1950
2155.0000;4442.1910
2156.0000;4431.0750
2157.0000;4447.4360
2158.0000;4487.2160
2159.0000;4499.2570
2160.0000;4461.0410
2161.0000;4422.1830
2162.0000;4419.0050
2163.0000;4434.2880
2164.0000;4446.5560
2165.0000;4457.6410
2166.0000;4460.7020
2167.0000;4455.1160
2168.0000;4451.5380
2169.0000;4451.7710
2170.0000;4452.3920
2171.0000;4452.4120
2172.0000;4452.6970
2173.0000;4453.8470
2174.0000;4454.0850
2175.0000;4451.8170
2176.0000;4447.8840
2177.0000;4443.0650
2178.0000;4440.1580
2179.0000;4444.9120
2180.0000;4457.3270
2181.0000;4465.7280
2182.0000;4463.0620
2183.0000;4454.0350
2184.0000;4441.1000
2185.0000;4433.2760
2186.0000;4441.8610
2187.0000;4458.7910
2188.0000;4465.0970
2189.0000;4459.1080
2190.0000;4451.0870
2191.0000;4443.7170
2192.0000;4439.2320
2193.0000;4439.8850
2194.0000;4441.9350
2195.0000;4440.1030
2196.0000;4438.7720
2197.0000;4442.1080
2198.0000;4446.3250
2199.0000;4445.9950
2200.0000;4440.0260
2201.0000;4428.3110
2202.0000;4413.9290
2203.0000;4409.7120
2204.0000;4422.5740
2205.0000;4435.2890
2206.0000;4431.3960
2207.0000;4424.3600
2208.0000;4428.9030
2209.0000;4440.3850
2210.0000;4454.5140
2211.0000;4465.3450
2212.0000;4460.8740
2213.0000;4441.4240
2214.0000;4433.4850
2215.0000;4450.6860
2216.0000;4465.0150
2217.0000;4456.9510
2218.0000;4441.4770
2219.0000;4436.5630
2220.0000;4433.8980
2221.0000;4419.7530
2222.0000;4404.0420
2223.0000;4402.2450
2224.0000;4416.9810
2225.0000;4428.8940
2226.0000;4430.0940
2227.0000;4428.5770
2228.0000;4428.5500
2229.0000;4427.3100
2230.0000;4424.5650
2231.0000;4422.3120
2232.0000;4423.8010
2233.0000;4426.9480
2234.0000;4426.8000
2235.0000;4422.6590
2236.0000;4414.5290
2237.0000;4404.4250
2238.0000;4405.1800
2239.0000;4423.2750
2240.0000;4443.3230
2241.0000;4452.1210
2242.0000;4453.3880
2243.0000;4457.9370
2244.0000;4456.7610
2245.0000;4443.5520
2246.0000;4425.8920
2247.0000;4425.2240
2248.0000;4443.0450
2249.0000;4453.8070
2250.0000;4447.6840
2251.0000;4436.0280
2252.0000;4424.5890
2253.0000;4419.6700
2254.0000;4429.6910
2255.0000;4441.8530
2256.0000;4434.7120
2257.0000;4419.5840
2258.0000;4418.0650
2259.0000;4429.7740
2260.0000;4442.8430
2261.0000;4452.6400
2262.0000;4455.8030
2263.0000;4449.6390
2264.0000;4437.7530
2265.0000;4422.0400
2266.0000;4419.9310
2267.0000;4453.6160
2268.0000;4489.3650
2269.0000;4477.9370
2270.0000;4438.4930
2271.0000;4424.7320
2272.0000;4441.4330
2273.0000;4467.5810
2274.0000;4494.1780
2275.0000;4499.7760
2276.0000;4472.3970
2277.0000;4442.7240
2278.0000;4434.9000
2279.0000;4443.0490
2280.0000;4462.4920
2281.0000;4479.2100
2282.0000;4465.7010
2283.0000;4435.8850
2284.0000;4425.5140
2285.0000;4438.2900
2286.0000;4456.7550
2287.0000;4474.6480
2288.0000;4482.1870
2289.0000;4472.4820
2290.0000;4460.0450
2291.0000;4456.4880
2292.0000;4458.0810
2293.0000;4462.6570
2294.0000;4467.8350
2295.0000;4469.0340
2296.0000;4464.4790
2297.0000;4452.5470
2298.0000;4438.1350
2299.0000;4435.7990
2300.0000;4446.9340
2301.0000;4452.3940
2302.0000;4444.4680
2303.0000;4431.4480
2304.0000;4416.2250
2305.0000;4413.6420
2306.0000;4436.4650
2307.0000;4465.0350
2308.0000;4474.7980
2309.0000;4470.7410
2310.0000;4472.4860
2311.0000;4474.6450
2312.0000;4472.2770
2313.0000;4465.1740
2314.0000;4457.9360
2315.0000;4452.5870
2316.0000;4446.6970
2317.0000;4439.9960
2318.0000;4439.5700
2319.0000;4449.3540
2320.0000;4461.4270
2321.0000;4467.4220
2322.0000;4464.7510
2323.0000;4451.1650
2324.0000;4436.1070
2325.0000;4436.5010
2326.0000;4453.2100
2327.0000;4474.8810
2328.0000;4494.3000
2329.0000;4505.7960
2330.0000;4503.4870
2331.0000;4494.2150
2332.0000;4482.8700
2333.0000;4477.3400
2334.0000;4487.3600
2335.0000;4497.4000
2336.0000;4488.8410
2337.0000;4471.6650
2338.0000;4459.3730
2339.0000;4454.8060
2340.0000;4456.4080
2341.0000;4464.3340
2342.0000;4470.6720
2343.0000;4471.7960
2344.0000;4461.2550
2345.0000;4439.2730
2346.0000;4433.9240
2347.0000;4461.6460
2348.0000;4481.8800
2349.0000;4459.4850
2350.0000;4433.0000
2351.0000;4447.5730
2352.0000;4475.0710
2353.0000;4476.2300
2354.0000;4463.4630
2355.0000;4462.6790
2356.0000;4473.0700
2357.0000;4485.6380
2358.0000;4497.1280
2359.0000;4506.0500
2360.0000;4510.2850
2361.0000;4513.9730
2362.0000;4519.5090
2363.0000;4521.0000
2364.0000;4517.3470
2365.0000;4506.5940
2366.0000;4487.4590
2367.0000;4471.4460
2368.0000;4466.2280
2369.0000;4474.4200
2370.0000;4488.7080
2371.0000;4503.4630
2372.0000;4504.8710
2373.0000;4492.2200
2374.0000;4481.8590
2375.0000;4479.0000
2376.0000;4482.6110
2377.0000;4492.5760
2378.0000;4499.4710
2379.0000;4496.6100
2380.0000;4491.9840
2381.0000;4491.2850
2382.0000;4496.0210
2383.0000;4511.0160
2384.0000;4524.0120
2385.0000;4520.5210
2386.0000;4506.5210
2387.0000;4499.9100
2388.0000;4500.9550
2389.0000;4505.6000
2390.0000;4511.2140
2391.0000;4505.6470
2392.0000;4489.2880
2393.0000;4482.4680
2394.0000;4493.5480
2395.0000;4512.1030
2396.0000;4531.4410
2397.0000;4541.7790
2398.0000;4535.5480
2399.0000;4519.8480
2400.0000;4508.1420
2401.0000;4498.5350
2402.0000;4486.6180
2403.0000;4481.6550
2404.0000;4488.7740
2405.0000;4504.3210
2406.0000;4512.6910
2407.0000;4512.0870
2408.0000;4513.1600
2409.0000;4514.7040
2410.0000;4506.1540
2411.0000;4487.1370
2412.0000;4483.5380
2413.0000;4506.5300
2414.0000;4532.6720
2415.0000;4546.1900
2416.0000;4543.3840
2417.0000;4523.2490
2418.0000;4498.4000
2419.0000;4489.1480
2420.0000;4493.4180
2421.0000;4499.9590
2422.0000;4510.8800
2423.0000;4524.7280
2424.0000;4534.6560
2425.0000;4534.7130
2426.0000;4523.2510
2427.0000;4510.3840
2428.0000;4500.8520
2429.0000;4501.5600
2430.0000;4514.0810
2431.0000;4518.9380
2432.0000;4505.7320
2433.0000;4492.5360
2434.0000;4492.1410
2435.0000;4492.7040
2436.0000;4485.8380
2437.0000;4473.3700
2438.0000;4450.4900
2439.0000;4435.4300
2440.0000;4446.3310
2441.0000;4472.6510
2442.0000;4483.6060
2443.0000;4481.7090
2444.0000;4482.4220
2445.0000;4483.8410
2446.0000;4483.4580
2447.0000;4481.7530
2448.0000;4483.2700
2449.0000;4488.2020
2450.0000;4489.2570
2451.0000;4483.7140
2452.0000;4481.6770
2453.0000;4488.5020
2454.0000;4492.3920
2455.0000;4484.4620
2456.0000;4479.6380
2457.0000;4492.1040
2458.0000;4505.2000
2459.0000;4501.8570
2460.0000;4487.6670
2461.0000;4472.0640
2462.0000;4460.3880
2463.0000;4459.0610
2464.0000;4469.0880
2465.0000;4484.2230
2466.0000;4496.0230
2467.0000;4484.5900
2468.0000;4455.4260
2469.0000;4448.0620
2470.0000;4471.0560
2471.0000;4484.4250
2472.0000;4475.3460
2473.0000;4471.0550
2474.0000;4481.6470
2475.0000;4483.2680
2476.0000;4461.4310
2477.0000;4450.7790
2478.0000;4478.3900
2479.0000;4508.1630
2480.0000;4506.5880
2481.0000;4490.1090
2482.0000;4481.7930
2483.0000;4477.6040
2484.0000;4475.4990
2485.0000;4478.5660
2486.0000;4486.0960
2487.0000;4494.8470
2488.0000;4495.5430
2489.0000;4492.1450
2490.0000;4503.7790
2491.0000;4526.2100
2492.0000;4539.6050
2493.0000;4536.3560
2494.0000;4522.1940
2495.0000;4500.6220
2496.0000;4482.9130
2497.0000;4477.2380
2498.0000;4479.9620
2499.0000;4488.5760
2500.0000;4494.7340
2501.0000;4489.4950
2502.0000;4486.7570
2503.0000;4498.6070
2504.0000;4509.1470
2505.0000;4502.4010
2506.0000;4494.2220
2507.0000;4506.1560
2508.0000;4523.0340
2509.0000;4527.9910
2510.0000;4520.0910
2511.0000;4503.8510
2512.0000;4486.2890
2513.0000;4481.9100
2514.0000;4490.5980
2515.0000;4495.9590
2516.0000;4496.8390
2517.0000;4497.6860
2518.0000;4496.4170
2519.0000;4484.6370
2520.0000;4464.9920
2521.0000;4459.4450
2522.0000;4475.7190
2523.0000;4492.7320
2524.0000;4499.7320
2525.0000;4497.9000
2526.0000;4487.1240
2527.0000;4474.4430
2528.0000;4466.9600
2529.0000;4463.7480
2530.0000;4464.3110
2531.0000;4461.4380
2532.0000;4444.4880
2533.0000;4429.1580
2534.0000;4427.4850
2535.0000;4437.1280
2536.0000;4449.6580
2537.0000;4459.2900
2538.0000;4455.1960
2539.0000;4442.4330
2540.0000;4437.4210
2541.0000;4436.3840
2542.0000;4426.6880
2543.0000;4413.6300
2544.0000;4404.4220
2545.0000;4403.2520
2546.0000;4407.6310
2547.0000;4416.1610
2548.0000;4418.5510
2549.0000;4413.0850
2550.0000;4409.2840
2551.0000;4409.7620
2552.0000;4411.9140
2553.0000;4415.1380
2554.0000;4418.6190
2555.0000;4421.5460
2556.0000;4427.4810
2557.0000;4438.1480
2558.0000;4434.5210
2559.0000;4406.6590
2560.0000;4387.0430
2561.0000;4400.5670
2562.0000;4424.4720
2563.0000;4436.1390
2564.0000;4443.0240
2565.0000;4452.7640
2566.0000;4455.2230
2567.0000;4449.5550
2568.0000;4436.8680
2569.0000;4423.4770
2570.0000;4413.8510
2571.0000;4411.1520
2572.0000;4415.5170
2573.0000;4418.8940
2574.0000;4420.6800
2575.0000;4417.4640
2576.0000;4412.1720
2577.0000;4411.0320
2578.0000;4415.2810
2579.0000;4423.8990
2580.0000;4433.5120
2581.0000;4436.0830
2582.0000;4430.1190
2583.0000;4421.6690
2584.0000;4415.8780
2585.0000;4425.8260
2586.0000;4449.3070
2587.0000;4455.6240
2588.0000;4437.1460
2589.0000;4419.1220
2590.0000;4411.6800
2591.0000;4411.8640
2592.0000;4420.3260
2593.0000;4430.6800
2594.0000;4437.6820
2595.0000;4441.1760
2596.0000;4440.2420
2597.0000;4435.4470
2598.0000;4428.8450
2599.0000;4420.5290
2600.0000;4411.7840
2601.0000;4401.1340
2602.0000;4385.9730
2603.0000;4377.3300
2604.0000;4379.4040
2605.0000;4393.8640
2606.0000;4419.0690
2607.0000;4436.9740
2608.0000;4429.4940
2609.0000;4411.5790
2610.0000;4407.1130
2611.0000;4412.0340
2612.0000;4423.8920
2613.0000;4435.3730
2614.0000;4433.2780
2615.0000;4424.3400
2616.0000;4422.3010
2617.0000;4425.2540
2618.0000;4432.8330
2619.0000;4437.4550
2620.0000;4425.9280
2621.0000;4405.7500
2622.0000;4394.5240
2623.0000;4393.6160
2624.0000;4391.3910
2625.0000;4391.6570
2626.0000;4395.1390
2627.0000;4402.2950
2628.0000;4415.1420
2629.0000;4425.3880
2630.0000;4416.2980
2631.0000;4393.8010
2632.0000;4392.2770
2633.0000;4411.7580
2634.0000;4416.0640
2635.0000;4404.5740
2636.0000;4406.0390
2637.0000;4420.2800
2638.0000;4418.6180
2639.0000;4400.5870
2640.0000;4403.2290
2641.0000;4430.4000
2642.0000;4441.5260
2643.0000;4425.9080
2644.0000;4415.7680
2645.0000;4419.5580
2646.0000;4421.1870
2647.0000;4416.2060
2648.0000;4406.1670
2649.0000;4394.0360
2650.0000;4394.4410
2651.0000;4413.0160
2652.0000;4423.6420
2653.0000;4414.1840
2654.0000;4404.1120
2655.0000;4402.5400
2656.0000;4403.1400
2657.0000;4403.8330
2658.0000;4413.2880
2659.0000;4433.8810
2660.0000;4439.4020
2661.0000;4414.5750
2662.0000;4387.9370
2663.0000;4381.4540
2664.0000;4379.6480
2665.0000;4372.9580
2666.0000;4371.2550
2667.0000;4376.9130
2668.0000;4384.9110
2669.0000;4391.1740
2670.0000;4388.3860
2671.0000;4370.2500
2672.0000;4358.9720
2673.0000;4373.2150
2674.0000;4389.1880
2675.0000;4383.6240
2676.0000;4380.1930
2677.0000;4400.8850
2678.0000;4409.1150
2679.0000;4375.4430
2680.0000;4341.7410
2681.0000;4348.7110
2682.0000;4370.2360
2683.0000;4380.1300
2684.0000;4382.0290
2685.0000;4375.8750
2686.0000;4367.0820
2687.0000;4367.3850
2688.0000;4366.2810
2689.0000;4352.4180
2690.0000;4339.9870
2691.0000;4342.4640
2692.0000;4349.4930
2693.0000;4346.8180
2694.0000;4339.6240
2695.0000;4329.5100
2696.0000;4323.8530
2697.0000;4327.3070
2698.0000;4340.3280
2699.0000;4361.4190
2700.0000;4375.3550
2701.0000;4370.2820
2702.0000;4349.9380
2703.0000;4325.2860
2704.0000;4309.4170
2705.0000;4316.1000
2706.0000;4332.5180
2707.0000;4330.7280
2708.0000;4327.1360
2709.0000;4340.8720
2710.0000;4353.2910
2711.0000;4346.4960
2712.0000;4332.0040
2713.0000;4327.0060
2714.0000;4326.9450
2715.0000;4325.3710
2716.0000;4325.8100
2717.0000;4327.5490
2718.0000;4330.9000
2719.0000;4336.2670
2720.0000;4338.7430
2721.0000;4330.7880
2722.0000;4327.4010
2723.0000;4349.8200
2724.0000;4372.2040
2725.0000;4364.6210
2726.0000;4346.6470
2727.0000;4345.6010
2728.0000;4351.5200
2729.0000;4354.4060
2730.0000;4357.9730
2731.0000;4362.3990
2732.0000;4369.7020
2733.0000;4387.0150
2734.0000;4393.0380
2735.0000;4369.6000
2736.0000;4337.7410
2737.0000;4321.5520
2738.0000;4322.7480
2739.0000;4337.7540
2740.0000;4350.9620
2741.0000;4338.5860
2742.0000;4318.3710
2743.0000;4307.9570
2744.0000;4304.4310
2745.0000;4302.7610
2746.0000;4309.7170
2747.0000;4326.4020
2748.0000;4342.6580
2749.0000;4349.7790
2750.0000;4349.7200
2751.0000;4348.1520
2752.0000;4343.1500
2753.0000;4336.0640
2754.0000;4335.4440
2755.0000;4348.4630
2756.0000;4357.3410
2757.0000;4347.8250
2758.0000;4329.7980
2759.0000;4312.7290
2760.0000;4301.1970
2761.0000;4299.6610
2762.0000;4306.9220
2763.0000;4318.2280
2764.0000;4330.2220
2765.0000;4337.3890
2766.0000;4340.8410
2767.0000;4341.4980
2768.0000;4331.3090
2769.0000;4309.5460
2770.0000;4291.8110
2771.0000;4289.2120
2772.0000;4289.4930
2773.0000;4286.8170
2774.0000;4286.2150
2775.0000;4288.3520
2776.0000;4290.4580
2777.0000;4290.9490
2778.0000;4289.1310
2779.0000;4285.3290
2780.0000;4287.0880
2781.0000;4295.3840
2782.0000;4296.5660
2783.0000;4287.0870
2784.0000;4281.6040
2785.0000;4284.2420
2786.0000;4288.5520
2787.0000;4291.9820
2788.0000;4289.9750
2789.0000;4283.8700
2790.0000;4290.8580
2791.0000;4307.1500
2792.0000;4301.6370
2793.0000;4278.2530
2794.0000;4285.3610
2795.0000;4316.9260
2796.0000;4322.8030
2797.0000;4302.2440
2798.0000;4293.3240
2799.0000;4295.9940
2800.0000;4295.1170
2801.0000;4291.1340
2802.0000;4282.9640
2803.0000;4275.1840
2804.0000;4275.8140
2805.0000;4280.8090
2806.0000;4275.6100
2807.0000;4265.4030
2808.0000;4258.7920
2809.0000;4258.0380
2810.0000;4259.0260
2811.0000;4267.9340
2812.0000;4293.9560
2813.0000;4313.7000
2814.0000;4297.8380
2815.0000;4271.3790
2816.0000;4275.9930
2817.0000;4290.1200
2818.0000;4289.0070
2819.0000;4282.9360
2820.0000;4279.0290
2821.0000;4278.7500
2822.0000;4284.6450
2823.0000;4289.2510
2824.0000;4285.2770
2825.0000;4285.3570
2826.0000;4298.0360
2827.0000;4307.4670
2828.0000;4303.6220
2829.0000;4308.6620
2830.0000;4333.2180
2831.0000;4347.0000
2832.0000;4335.7710
2833.0000;4330.2010
2834.0000;4341.0770
2835.0000;4344.8010
2836.0000;4334.5810
2837.0000;4322.4020
2838.0000;4312.9670
2839.0000;4299.3990
2840.0000;4285.8280
2841.0000;4283.1760
2842.0000;4291.9510
2843.0000;4289.9940
2844.0000;4281.6490
2845.0000;4295.5680
2846.0000;4320.6730
2847.0000;4319.3610
2848.0000;4295.0290
2849.0000;4275.8790
2850.0000;4271.2070
2851.0000;4289.5370
2852.0000;4320.9530
2853.0000;4345.2780
2854.0000;4348.6160
2855.0000;4321.5290
2856.0000;4289.6000
2857.0000;4300.5790
2858.0000;4319.6270
2859.0000;4302.4870
2860.0000;4273.8490
2861.0000;4251.2950
2862.0000;4246.5900
2863.0000;4266.0070
2864.0000;4289.5830
2865.0000;4295.6440
2866.0000;4291.0630
2867.0000;4280.0960
2868.0000;4272.0900
2869.0000;4274.6930
2870.0000;4276.6280
2871.0000;4272.6070
2872.0000;4258.8530
2873.0000;4236.7450
2874.0000;4220.6420
2875.0000;4216.8490
2876.0000;4215.5380
2877.0000;4217.2320
2878.0000;4222.0060
2879.0000;4229.4360
2880.0000;4240.4790
2881.0000;4249.7960
2882.0000;4248.5740
2883.0000;4243.9520
2884.0000;4258.4570
2885.0000;4281.3490
2886.0000;4297.3510
2887.0000;4298.1520
2888.0000;4280.3370
2889.0000;4260.3980
2890.0000;4264.2270
2891.0000;4276.6740
2892.0000;4278.0940
2893.0000;4277.8370
2894.0000;4281.9940
2895.0000;4279.5390
2896.0000;4264.7130
2897.0000;4259.3030
2898.0000;4274.5820
2899.0000;4284.2040
2900.0000;4276.8810
2901.0000;4266.6980
2902.0000;4260.2410
2903.0000;4263.7230
2904.0000;4276.1650
2905.0000;4277.6640
2906.0000;4267.5170
2907.0000;4263.0240
2908.0000;4265.3470
2909.0000;4266.0510
2910.0000;4265.9480
2911.0000;4266.6050
2912.0000;4268.1920
2913.0000;4271.8510
2914.0000;4274.0060
2915.0000;4268.5170
2916.0000;4265.5350
2917.0000;4279.3870
2918.0000;4290.4310
2919.0000;4279.9940
2920.0000;4267.5000
2921.0000;4269.5880
2922.0000;4270.3400
2923.0000;4261.3970
2924.0000;4255.9040
2925.0000;4259.1980
2926.0000;4257.8050
2927.0000;4249.2920
2928.0000;4248.4550
2929.0000;4256.9000
2930.0000;4260.0740
2931.0000;4255.2610
2932.0000;4246.3420
2933.0000;4238.0450
2934.0000;4237.0540
2935.0000;4244.5000
2936.0000;4256.2060
2937.0000;4265.4630
2938.0000;4265.1090
2939.0000;4253.1850
2940.0000;4233.0610
2941.0000;4214.6400
2942.0000;4208.7820
2943.0000;4210.5750
2944.0000;4211.7310
2945.0000;4220.8770
2946.0000;4238.5610
2947.0000;4239.0550
2948.0000;4212.0640
2949.0000;4191.0560
2950.0000;4189.4510
2951.0000;4195.9330
2952.0000;4207.7760
2953.0000;4218.2990
2954.0000;4221.2600
2955.0000;4211.3820
2956.0000;4197.4800
2957.0000;4203.7190
2958.0000;4219.9890
2959.0000;4221.6950
2960.0000;4214.1000
2961.0000;4205.3300
2962.0000;4202.8000
2963.0000;4217.2530
2964.0000;4222.3320
2965.0000;4197.2300
2966.0000;4182.1530
2967.0000;4199.8190
2968.0000;4206.8990
2969.0000;4187.5890
2970.0000;4171.1520
2971.0000;4168.3260
2972.0000;4170.8600
2973.0000;4180.3390
2974.0000;4199.9970
2975.0000;4219.1050
2976.0000;4216.4590
2977.0000;4196.9630
2978.0000;4183.1150
2979.0000;4177.5350
2980.0000;4181.4000
2981.0000;4185.2150
2982.0000;4170.9380
2983.0000;4165.4720
2984.0000;4187.0380
2985.0000;4211.1120
2986.0000;4220.6720
2987.0000;4213.3350
2988.0000;4190.6580
2989.0000;4184.1010
2990.0000;4200.2960
2991.0000;4206.2290
2992.0000;4200.2920
2993.0000;4200.5420
2994.0000;4204.3540
2995.0000;4201.3080
2996.0000;4197.3990
2997.0000;4202.9360
2998.0000;4212.5480
2999.0000;4220.0800
3000.0000;4223.4700
3001.0000;4222.1460
3002.0000;4220.7990
3003.0000;4224.0390
3004.0000;4220.5830
3005.0000;4207.3710
3006.0000;4194.4290
3007.0000;4189.0490
3008.0000;4199.1530
3009.0000;4218.6220
3010.0000;4216.8150
3011.0000;4199.3440
3012.0000;4196.5370
3013.0000;4202.4350
3014.0000;4201.5360
3015.0000;4200.1550
3016.0000;4204.4080
3017.0000;4205.6350
3018.0000;4198.0330
3019.0000;4183.9260
3020.0000;4166.9630
3021.0000;4156.5450
3022.0000;4157.5780
3023.0000;4153.6700
3024.0000;4145.9710
3025.0000;4156.0750
3026.0000;4177.6950
3027.0000;4180.0700
3028.0000;4167.5170
3029.0000;4166.7870
3030.0000;4168.3170
3031.0000;4159.6620
3032.0000;4149.4130
3033.0000;4143.2860
3034.0000;4147.3000
3035.0000;4162.8240
3036.0000;4179.0680
3037.0000;4186.1420
3038.0000;4178.9970
3039.0000;4159.1940
3040.0000;4149.1250
3041.0000;4151.8230
3042.0000;4146.9910
3043.0000;4139.3280
3044.0000;4138.6220
3045.0000;4141.3820
3046.0000;4138.2340
3047.0000;4135.0690
3048.0000;4137.8580
3049.0000;4132.3060
3050.0000;4109.9750
3051.0000;4091.8500
3052.0000;4089.8890
3053.0000;4108.9410
3054.0000;4140.8410
3055.0000;4145.4300
3056.0000;4119.5630
3057.0000;4096.8990
3058.0000;4085.9050
3059.0000;4087.5310
3060.0000;4100.8510
3061.0000;4111.7840
3062.0000;4120.8060
3063.0000;4126.0440
3064.0000;4128.2370
3065.0000;4129.1440
3066.0000;4130.1190
3067.0000;4131.0210
3068.0000;4122.9100
3069.0000;4109.6440
3070.0000;4112.1850
3071.0000;4126.7950
3072.0000;4132.0080
3073.0000;4131.6000
3074.0000;4138.8390
3075.0000;4140.6910
3076.0000;4125.6670
3077.0000;4121.8880
3078.0000;4147.6650
3079.0000;4168.3680
3080.0000;4165.9420
3081.0000;4150.7770
3082.0000;4129.1720
3083.0000;4118.7340
3084.0000;4123.9230
3085.0000;4132.7640
3086.0000;4141.3150
3087.0000;4138.1870
3088.0000;4136.8880
3089.0000;4155.5450
3090.0000;4170.2190
3091.0000;4164.8040
3092.0000;4154.4790
3093.0000;4147.6760
3094.0000;4143.5060
3095.0000;4144.4930
3096.0000;4152.4210
3097.0000;4161.6740
3098.0000;4157.4890
3099.0000;4145.1880
3100.0000;4139.7830
3101.0000;4138.2750
3102.0000;4137.0580
3103.0000;4132.5830
3104.0000;4121.7060
3105.0000;4116.3410
3106.0000;4121.3430
3107.0000;4127.8880
3108.0000;4131.5700
3109.0000;4127.0920
3110.0000;4120.7730
3111.0000;4134.6690
3112.0000;4145.4590
3113.0000;4116.2090
3114.0000;4091.2980
3115.0000;4110.9850
3116.0000;4135.3970
3117.0000;4138.3950
3118.0000;4126.7350
3119.0000;4105.6690
3120.0000;4101.0250
3121.0000;4111.0210
3122.0000;4099.5950
3123.0000;4081.7510
3124.0000;4083.6650
3125.0000;4098.0210
3126.0000;4111.4510
3127.0000;4114.9810
3128.0000;4101.7550
3129.0000;4096.6140
3130.0000;4108.8230
3131.0000;4114.5070
3132.0000;4108.0010
3133.0000;4094.9440
3134.0000;4081.1020
3135.0000;4076.1890
3136.0000;4076.9760
3137.0000;4070.0450
3138.0000;4071.0380
3139.0000;4087.8350
3140.0000;4091.1040
3141.0000;4069.4330
3142.0000;4055.5780
3143.0000;4058.0110
3144.0000;4057.9600
3145.0000;4058.4220
3146.0000;4067.3160
3147.0000;4074.0010
3148.0000;4064.6900
3149.0000;4053.2910
3150.0000;4052.6660
3151.0000;4053.1090
3152.0000;4050.6140
3153.0000;4047.3210
3154.0000;4044.7280
3155.0000;4047.1820
3156.0000;4050.3580
3157.0000;4042.1290
3158.0000;4030.0040
3159.0000;4024.2450
3160.0000;4026.2630
3161.0000;4035.1290
3162.0000;4043.2670
3163.0000;4046.0350
3164.0000;4050.6590
3165.0000;4058.9610
3166.0000;4079.0130
3167.0000;4097.4140
3168.0000;4093.4000
3169.0000;4078.6290
3170.0000;4076.1590
3171.0000;4079.1370
3172.0000;4083.6620
3173.0000;4092.5350
3174.0000;4103.3010
3175.0000;4105.2350
3176.0000;4096.9720
3177.0000;4092.5710
3178.0000;4086.6040
3179.0000;4065.9590
3180.0000;4047.0160
3181.0000;4040.1000
3182.0000;4056.6140
3183.0000;4094.8160
3184.0000;4107.1710
3185.0000;4081.8680
3186.0000;4072.3170
3187.0000;4080.6640
3188.0000;4086.0710
3189.0000;4088.4700
3190.0000;4086.6160
3191.0000;4083.7390
3192.0000;4083.7720
3193.0000;4088.6650
3194.0000;4097.2830
3195.0000;4099.4370
3196.0000;4090.2770
3197.0000;4068.3370
3198.0000;4045.1770
3199.0000;4033.5620
3200.0000;4044.2080
3201.0000;4076.2740
3202.0000;4095.2240
3203.0000;4079.3840
3204.0000;4071.5820
3205.0000;4082.1990
3206.0000;4093.6650
3207.0000;4096.2400
3208.0000;4077.7270
3209.0000;4054.4620
3210.0000;4050.5570
3211.0000;4055.7910
3212.0000;4059.8500
3213.0000;4067.5160
3214.0000;4073.7610
3215.0000;4055.2110
3216.0000;4023.9750
3217.0000;4022.1310
3218.0000;4038.1430
3219.0000;4038.2730
3220.0000;4034.0760
3221.0000;4031.5160
3222.0000;4025.1190
3223.0000;4016.4280
3224.0000;4021.7150
3225.0000;4036.6390
3226.0000;4034.0050
3227.0000;4023.7730
3228.0000;4030.2250
3229.0000;4037.2730
3230.0000;4032.2580
3231.0000;4029.4630
3232.0000;4033.4410
3233.0000;4029.9100
3234.0000;4019.8000
3235.0000;4014.6080
3236.0000;4016.8820
3237.0000;4025.4210
3238.0000;4032.2030
3239.0000;4027.5160
3240.0000;4035.7940
3241.0000;4060.4020
3242.0000;4047.9550
3243.0000;4002.1290
3244.0000;3986.0270
3245.0000;3993.5190
3246.0000;3988.3670
3247.0000;3991.3620
3248.0000;4010.5600
3249.0000;4023.0860
3250.0000;4017.4750
3251.0000;4002.6340
3252.0000;3988.7630
3253.0000;3996.1720
3254.0000;4017.2600
3255.0000;4031.1120
3256.0000;4042.9480
3257.0000;4056.2700
3258.0000;4056.0900
3259.0000;4041.1250
3260.0000;4038.3990
3261.0000;4048.6500
3262.0000;4056.9920
3263.0000;4052.5650
3264.0000;4023.5630
3265.0000;3998.0990
3266.0000;3997.9870
3267.0000;4009.6940
3268.0000;4026.4580
3269.0000;4041.2680
3270.0000;4050.0510
3271.0000;4063.1350
3272.0000;4063.8620
3273.0000;4042.4960
3274.0000;4023.7800
3275.0000;4024.2680
3276.0000;4020.0250
3277.0000;4008.2500
3278.0000;3991.3840
3279.0000;3985.6000
3280.0000;4012.4010
3281.0000;4038.5600
3282.0000;4029.9830
3283.0000;4008.9180
3284.0000;3988.8230
3285.0000;3973.8220
3286.0000;3973.4580
3287.0000;3992.4160
3288.0000;4010.5070
3289.0000;3992.4050
3290.0000;3986.3120
3291.0000;4019.4040
3292.0000;4030.1650
3293.0000;4008.8870
3294.0000;4013.2180
3295.0000;4029.1050
3296.0000;4015.0750
3297.0000;3998.4420
3298.0000;4006.1310
3299.0000;4006.0300
3300.0000;3988.3770
3301.0000;3979.9460
3302.0000;3983.8920
3303.0000;3984.4970
3304.0000;3983.2490
3305.0000;3980.8390
3306.0000;3974.7260
3307.0000;3964.9290
3308.0000;3962.3610
3309.0000;3968.4930
3310.0000;3968.0200
3311.0000;3968.0000
3312.0000;3985.1000
3313.0000;3998.2570
3314.0000;3991.3870
3315.0000;3981.6240
3316.0000;3976.2860
3317.0000;3969.9970
3318.0000;3961.7810
3319.0000;3942.5690
3320.0000;3933.3670
3321.0000;3952.7590
3322.0000;3968.0120
3323.0000;3960.7770
3324.0000;3965.7250
3325.0000;3982.7860
3326.0000;3990.6000
3327.0000;3995.3640
3328.0000;4013.7830
3329.0000;4018.9030
3330.0000;3998.8390
3331.0000;3983.2280
3332.0000;3982.3230
3333.0000;3985.6470
3334.0000;3990.8460
3335.0000;3988.5820
3336.0000;3989.4490
3337.0000;4000.3730
3338.0000;3999.0280
3339.0000;3984.6380
3340.0000;3994.0230
3341.0000;4012.2730
3342.0000;3996.5150
3343.0000;3988.5860
3344.0000;4025.1660
3345.0000;4028.0270
3346.0000;3981.2400
3347.0000;3975.3680
3348.0000;4004.4060
3349.0000;4007.3630
3350.0000;4006.9250
3351.0000;4023.3780
3352.0000;4037.7870
3353.0000;4041.2600
3354.0000;4040.7870
3355.0000;4034.6430
3356.0000;4022.8760
3357.0000;4010.5700
3358.0000;4002.6250
3359.0000;4008.9690
3360.0000;4028.6810
3361.0000;4034.7150
3362.0000;4024.8900
3363.0000;4017.8970
3364.0000;4015.7750
3365.0000;4021.8130
3366.0000;4022.6620
3367.0000;4012.9770
3368.0000;4006.4970
3369.0000;4004.1240
3370.0000;3992.9850
3371.0000;3992.4580
3372.0000;4019.8770
3373.0000;4042.8820
3374.0000;4043.7470
3375.0000;4038.0110
3376.0000;4029.9370
3377.0000;4030.9880
3378.0000;4033.0620
3379.0000;4025.6040
3380.0000;4029.3930
3381.0000;4048.2820
3382.0000;4052.5070
3383.0000;4041.6950
3384.0000;4039.2360
3385.0000;4035.3100
3386.0000;4021.7440
3387.0000;4019.8740
3388.0000;4036.1060
3389.0000;4054.6920
3390.0000;4062.7160
3391.0000;4047.1660
3392.0000;4022.6540
3393.0000;4009.5070
3394.0000;4006.6950
3395.0000;4016.2850
3396.0000;4039.5590
3397.0000;4059.7550
3398.0000;4048.9360
3399.0000;4032.0340
3400.0000;4035.3190
3401.0000;4046.2620
3402.0000;4057.0540
3403.0000;4052.4380
3404.0000;4044.6790
3405.0000;4063.1170
3406.0000;4069.5950
3407.0000;4043.1010
3408.0000;4035.7770
3409.0000;4052.1340
3410.0000;4052.0040
3411.0000;4044.8240
3412.0000;4045.1320
3413.0000;4046.5870
3414.0000;4046.6440
3415.0000;4046.7560
3416.0000;4046.4660
3417.0000;4042.8060
3418.0000;4044.8530
3419.0000;4060.8290
3420.0000;4064.4690
3421.0000;4048.8290
3422.0000;4043.7680
3423.0000;4051.8010
3424.0000;4066.5010
3425.0000;4072.3270
3426.0000;4057.0420
3427.0000;4052.4490
3428.0000;4064.9350
3429.0000;4073.5650
3430.0000;4073.5080
3431.0000;4061.9770
3432.0000;4057.4890
3433.0000;4068.3530
3434.0000;4055.8700
3435.0000;4030.9770
3436.0000;4040.5330
3437.0000;4061.2940
3438.0000;4062.5980
3439.0000;4065.1370
3440.0000;4072.3190
3441.0000;4075.4730
3442.0000;4065.7790
3443.0000;4031.3680
3444.0000;4013.7410
3445.0000;4039.4630
3446.0000;4057.9970
3447.0000;4055.2520
3448.0000;4044.9440
3449.0000;4043.6430
3450.0000;4073.4970
3451.0000;4090.0050
3452.0000;4074.3030
3453.0000;4067.6680
3454.0000;4069.2000
3455.0000;4064.6250
3456.0000;4056.3660
3457.0000;4046.2260
3458.0000;4043.9440
3459.0000;4055.2410
3460.0000;4082.8260
3461.0000;4103.5080
3462.0000;4089.6950
3463.0000;4080.1700
3464.0000;4093.3950
3465.0000;4107.2950
3466.0000;4111.2000
3467.0000;4095.5330
3468.0000;4082.1420
3469.0000;4089.8100
3470.0000;4089.9520
3471.0000;4080.5030
3472.0000;4077.6740
3473.0000;4084.6570
3474.0000;4101.3930
3475.0000;4109.2220
3476.0000;4099.5390
3477.0000;4085.5210
3478.0000;4075.6170
3479.0000;4079.5930
3480.0000;4081.2770
3481.0000;4068.7710
3482.0000;4061.5300
3483.0000;4065.1430
3484.0000;4073.4040
3485.0000;4089.4920
3486.0000;4113.6110
3487.0000;4106.6910
3488.0000;4068.2730
3489.0000;4057.1580
3490.0000;4073.3890
3491.0000;4093.2610
3492.0000;4109.4640
3493.0000;4112.1920
3494.0000;4100.6040
3495.0000;4085.8000
3496.0000;4097.2050
3497.0000;4103.1680
3498.0000;4081.1050
3499.0000;4073.9990
3500.0000;4087.8610
3501.0000;4094.1970
3502.0000;4097.7250
3503.0000;4103.4240
3504.0000;4106.7580
3505.0000;4105.0870
3506.0000;4095.0310
3507.0000;4088.8720
3508.0000;4105.5040
3509.0000;4113.1320
3510.0000;4097.6670
3511.0000;4094.9220
3512.0000;4101.7620
3513.0000;4093.9010
3514.0000;4094.6530
3515.0000;4116.2180
3516.0000;4139.5270
3517.0000;4152.2790
3518.0000;4150.7040
3519.0000;4143.5760
3520.0000;4147.2880
3521.0000;4145.0270
3522.0000;4133.6820
3523.0000;4114.9380
3524.0000;4106.9750
3525.0000;4127.0400
3526.0000;4134.6330
3527.0000;4119.5660
3528.0000;4127.1690
3529.0000;4139.0720
3530.0000;4120.0430
3531.0000;4107.6460
3532.0000;4118.2500
3533.0000;4122.4190
3534.0000;4125.0790
3535.0000;4144.5990
3536.0000;4153.5130
3537.0000;4138.0950
3538.0000;4132.0240
3539.0000;4135.8000
3540.0000;4130.7390
3541.0000;4126.8770
3542.0000;4129.1900
3543.0000;4119.7950
3544.0000;4106.8830
3545.0000;4121.7640
3546.0000;4139.7680
3547.0000;4134.9250
3548.0000;4125.7060
3549.0000;4119.4920
3550.0000;4119.4290
3551.0000;4125.5210
3552.0000;4133.8850
3553.0000;4123.4370
3554.0000;4099.3060
3555.0000;4106.5500
3556.0000;4127.9500
3557.0000;4131.9460
3558.0000;4137.9910
3559.0000;4146.3920
3560.0000;4141.5920
3561.0000;4124.4010
3562.0000;4100.9990
3563.0000;4106.7490
3564.0000;4142.1210
3565.0000;4139.3470
3566.0000;4117.5310
3567.0000;4124.2990
3568.0000;4128.3080
3569.0000;4118.1120
3570.0000;4096.7850
3571.0000;4089.8950
3572.0000;4128.9880
3573.0000;4152.3410
3574.0000;4131.5480
3575.0000;4135.0410
3576.0000;4141.1320
3577.0000;4102.8150
3578.0000;4089.5380
3579.0000;4126.6320
3580.0000;4144.3090
3581.0000;4141.0180
3582.0000;4137.2550
3583.0000;4135.3010
3584.0000;4137.4730
3585.0000;4120.6160
3586.0000;4107.1460
3587.0000;4137.3990
3588.0000;4159.7390
3589.0000;4146.4660
3590.0000;4134.3140
3591.0000;4134.1670
3592.0000;4155.9980
3593.0000;4171.8890
3594.0000;4165.5420
3595.0000;4151.7260
3596.0000;4140.8570
3597.0000;4145.6210
3598.0000;4171.3380
3599.0000;4203.0210
3600.0000;4179.8690
3601.0000;4136.4500
3602.0000;4148.0610
3603.0000;4167.4180
3604.0000;4175.7010
3605.0000;4202.0330
3606.0000;4221.9110
3607.0000;4204.6820
3608.0000;4203.2940
3609.0000;4230.0310
3610.0000;4222.6600
3611.0000;4202.1620
3612.0000;4206.9670
3613.0000;4197.0040
3614.0000;4174.1930
3615.0000;4190.1860
3616.0000;4213.3160
3617.0000;4201.5380
3618.0000;4211.2890
3619.0000;4243.4730
3620.0000;4247.8540
3621.0000;4235.7780
3622.0000;4228.4110
3623.0000;4221.1720
3624.0000;4214.9380
3625.0000;4202.0600
3626.0000;4204.5220
3627.0000;4232.1970
3628.0000;4240.7360
3629.0000;4232.2000
3630.0000;4252.5070
3631.0000;4260.5450
3632.0000;4237.0240
3633.0000;4231.4760
3634.0000;4243.2670
3635.0000;4245.4670
3636.0000;4254.2330
3637.0000;4270.8750
3638.0000;4271.0400
3639.0000;4261.1680
3640.0000;4265.0860
3641.0000;4265.7800
3642.0000;4257.6150
3643.0000;4245.5570
3644.0000;4239.4490
3645.0000;4248.0500
3646.0000;4251.2840
3647.0000;4248.4250
3648.0000;4270.3740
3649.0000;4286.3050
3650.0000;4266.6560
3651.0000;4255.4570
3652.0000;4261.0200
3653.0000;4261.1500
3654.0000;4264.3710
3655.0000;4272.8870
3656.0000;4276.2360
3657.0000;4269.5110
3658.0000;4250.4880
3659.0000;4247.9380
3660.0000;4271.0950
3661.0000;4268.7050
3662.0000;4255.0390
3663.0000;4267.0150
3664.0000;4267.8240
3665.0000;4248.7380
3666.0000;4231.3160
3667.0000;4225.5150
3668.0000;4235.8130
3669.0000;4242.4800
3670.0000;4240.6440
3671.0000;4238.4480
3672.0000;4253.4520
3673.0000;4289.5530
3674.0000;4277.2310
3675.0000;4238.9970
3676.0000;4256.4970
3677.0000;4274.7830
3678.0000;4267.2620
3679.0000;4267.9470
3680.0000;4277.1070
3681.0000;4290.7640
3682.0000;4291.4860
3683.0000;4281.9330
3684.0000;4304.0420
3685.0000;4314.5180
3686.0000;4280.6080
3687.0000;4281.3980
3688.0000;4311.2800
3689.0000;4308.7770
3690.0000;4301.5380
3691.0000;4305.4220
3692.0000;4309.5070
3693.0000;4317.0450
3694.0000;4332.2650
3695.0000;4333.9190
3696.0000;4319.4120
3697.0000;4315.6560
3698.0000;4310.2740
3699.0000;4294.7150
3700.0000;4306.4580
3701.0000;4336.8940
3702.0000;4344.5800
3703.0000;4342.2030
3704.0000;4341.4910
3705.0000;4364.6030
3706.0000;4380.1890
3707.0000;4346.4740
3708.0000;4343.5000
3709.0000;4379.6370
3710.0000;4387.7510
3711.0000;4373.5360
3712.0000;4352.1050
3713.0000;4354.1320
3714.0000;4375.1490
3715.0000;4386.4460
3716.0000;4381.8970
3717.0000;4365.2000
3718.0000;4373.3240
3719.0000;4382.3450
3720.0000;4363.5760
3721.0000;4357.1150
3722.0000;4366.8760
3723.0000;4368.6390
3724.0000;4372.2200
3725.0000;4379.9370
3726.0000;4385.1880
3727.0000;4382.6390
3728.0000;4370.5310
3729.0000;4370.4850
3730.0000;4389.5980
3731.0000;4423.0900
3732.0000;4434.5460
3733.0000;4404.0570
3734.0000;4384.0840
3735.0000;4381.8620
3736.0000;4386.6470
3737.0000;4388.5430
3738.0000;4385.4350
3739.0000;4396.4100
3740.0000;4406.9180
3741.0000;4403.4490
3742.0000;4388.4150
3743.0000;4371.1900
3744.0000;4364.4600
3745.0000;4375.1820
3746.0000;4394.2560
3747.0000;4386.2970
3748.0000;4370.5080
3749.0000;4372.5220
3750.0000;4381.4780
3751.0000;4396.7550
3752.0000;4418.4560
3753.0000;4427.6270
3754.0000;4416.6980
3755.0000;4404.2280
3756.0000;4389.8910
3757.0000;4376.3830
3758.0000;4388.2880
3759.0000;4419.7940
3760.0000;4442.8200
3761.0000;4440.7280
3762.0000;4416.3120
3763.0000;4417.3600
3764.0000;4427.1670
3765.0000;4424.5460
3766.0000;4435.4880
3767.0000;4455.9580
3768.0000;4469.6920
3769.0000;4477.0130
3770.0000;4478.4520
3771.0000;4483.1000
3772.0000;4489.0130
3773.0000;4494.8540
3774.0000;4497.0870
3775.0000;4494.7130
3776.0000;4489.7320
3777.0000;4497.1840
3778.0000;4515.7330
3779.0000;4521.0130
3780.0000;4520.7100
3781.0000;4523.4970
3782.0000;4523.5720
3783.0000;4521.0990
3784.0000;4518.8580
3785.0000;4513.1870
3786.0000;4506.2780
3787.0000;4502.4570
3788.0000;4507.6700
3789.0000;4518.7620
3790.0000;4509.5560
3791.0000;4499.2420
3792.0000;4514.7350
3793.0000;4511.9910
3794.0000;4497.9040
3795.0000;4516.9480
3796.0000;4530.3130
3797.0000;4522.0180
3798.0000;4523.2740
3799.0000;4532.9940
3800.0000;4545.2910
3801.0000;4538.6810
3802.0000;4521.9770
3803.0000;4521.9900
3804.0000;4520.5170
3805.0000;4520.2560
3806.0000;4549.4430
3807.0000;4565.9030
3808.0000;4542.9340
3809.0000;4514.4440
3810.0000;4503.6450
3811.0000;4528.3990
3812.0000;4550.4800
3813.0000;4555.2070
3814.0000;4547.2800
3815.0000;4532.3410
3816.0000;4523.8100
3817.0000;4539.0010
3818.0000;4554.9470
3819.0000;4549.5260
3820.0000;4549.1880
3821.0000;4539.1360
3822.0000;4501.2110
3823.0000;4486.1660
3824.0000;4504.8130
3825.0000;4525.7020
3826.0000;4524.1160
3827.0000;4497.4300
3828.0000;4505.1160
3829.0000;4520.6070
3830.0000;4516.9570
3831.0000;4528.3730
3832.0000;4536.9750
3833.0000;4515.4550
3834.0000;4503.6600
3835.0000;4506.7560
3836.0000;4494.6750
3837.0000;4494.9590
3838.0000;4513.4660
3839.0000;4521.2730
3840.0000;4530.3160
3841.0000;4547.2590
3842.0000;4536.7080
3843.0000;4518.7760
3844.0000;4530.7310
3845.0000;4566.5840
3846.0000;4598.1430
3847.0000;4580.5010
3848.0000;4556.4320
3849.0000;4552.4930
3850.0000;4556.0040
3851.0000;4562.8750
3852.0000;4564.2360
3853.0000;4553.1720
3854.0000;4552.7270
3855.0000;4584.9590
3856.0000;4604.1550
3857.0000;4607.8910
3858.0000;4622.6090
3859.0000;4620.6950
3860.0000;4603.0000
3861.0000;4599.7990
3862.0000;4594.8330
3863.0000;4585.5030
3864.0000;4602.1610
3865.0000;4611.0250
3866.0000;4587.0050
3867.0000;4591.0440
3868.0000;4610.7280
3869.0000;4611.8490
3870.0000;4605.9590
3871.0000;4602.8070
3872.0000;4617.1750
3873.0000;4635.1800
3874.0000;4643.7980
3875.0000;4637.1110
3876.0000;4618.2330
3877.0000;4602.3410
3878.0000;4615.8100
3879.0000;4632.6110
3880.0000;4624.3660
3881.0000;4615.3290
3882.0000;4604.2440
3883.0000;4588.7620
3884.0000;4583.1910
3885.0000;4595.9330
3886.0000;4626.3780
3887.0000;4626.9670
3888.0000;4598.2340
3889.0000;4605.8330
3890.0000;4599.1490
3891.0000;4570.1040
3892.0000;4579.3040
3893.0000;4601.4490
3894.0000;4608.2700
3895.0000;4601.6100
3896.0000;4590.3360
3897.0000;4588.6580
3898.0000;4594.0870
3899.0000;4597.0950
3900.0000;4585.2590
3901.0000;4581.1210
3902.0000;4588.7500
3903.0000;4597.1690
3904.0000;4610.5820
3905.0000;4622.9820
3906.0000;4625.3240
3907.0000;4614.8730
3908.0000;4600.9760
3909.0000;4605.2510
3910.0000;4616.4530
3911.0000;4622.0510
3912.0000;4623.9100
3913.0000;4633.2800
3914.0000;4655.9580
3915.0000;4651.3620
3916.0000;4630.4500
3917.0000;4623.7560
3918.0000;4630.6490
3919.0000;4655.0030
3920.0000;4691.7240
3921.0000;4693.4170
3922.0000;4668.4420
3923.0000;4679.0790
3924.0000;4677.0000
3925.0000;4662.8730
3926.0000;4688.1460
3927.0000;4706.5190
3928.0000;4699.1590
3929.0000;4709.2180
3930.0000;4718.0440
3931.0000;4713.8890
3932.0000;4696.0510
3933.0000;4692.2790
3934.0000;4715.9590
3935.0000;4704.9030
3936.0000;4684.4520
3937.0000;4689.7690
3938.0000;4686.5680
3939.0000;4687.3840
3940.0000;4707.2300
3941.0000;4700.6550
3942.0000;4687.7400
3943.0000;4714.0240
3944.0000;4729.6760
3945.0000;4727.1350
3946.0000;4726.0010
3947.0000;4710.1330
3948.0000;4686.7390
3949.0000;4676.9600
3950.0000;4677.5310
3951.0000;4688.9760
3952.0000;4719.5810
3953.0000;4707.9170
3954.0000;4651.9740
3955.0000;4646.9940
3956.0000;4659.0260
3957.0000;4663.5370
3958.0000;4670.1130
3959.0000;4665.7060
3960.0000;4650.1880
3961.0000;4657.0500
3962.0000;4663.3800
3963.0000;4652.4440
3964.0000;4659.2360
3965.0000;4667.2360
3966.0000;4658.2300
3967.0000;4642.1650
3968.0000;4625.9520
3969.0000;4619.3640
3970.0000;4638.3020
3971.0000;4653.0480
3972.0000;4627.0910
3973.0000;4602.9330
3974.0000;4598.1270
3975.0000;4615.7940
3976.0000;4624.3360
3977.0000;4621.9310
3978.0000;4622.1250
3979.0000;4620.3380
3980.0000;4621.4600
3981.0000;4632.3540
3982.0000;4637.7780
3983.0000;4632.3950
3984.0000;4621.2640
3985.0000;4603.0470
3986.0000;4591.7250
3987.0000;4604.0790
3988.0000;4621.6960
3989.0000;4628.0150
3990.0000;4614.1810
3991.0000;4590.9690
3992.0000;4581.8700
3993.0000;4613.3800
3994.0000;4637.8140
3995.0000;4641.1390
3996.0000;4656.2930
3997.0000;4656.8050
3998.0000;4645.5650
3999.0000;4655.2640
4000.0000;4658.9200
4001.0000;4655.8840
4002.0000;4677.6480
4003.0000;4691.0500
4004.0000;4682.5050
4005.0000;4669.0290
4006.0000;4660.2320
4007.0000;4665.7130
4008.0000;4684.5590
4009.0000;4709.6690
4010.0000;4724.3800
4011.0000;4711.4940
4012.0000;4702.3420
4013.0000;4708.1000
4014.0000;4698.1090
4015.0000;4690.6400
4016.0000;4695.3270
4017.0000;4710.8070
4018.0000;4708.3650
4019.0000;4688.1030
4020.0000;4694.2840
4021.0000;4712.7000
4022.0000;4727.6750
4023.0000;4731.1030
4024.0000;4705.4570
4025.0000;4667.7380
4026.0000;4665.3800
4027.0000;4680.0420
4028.0000;4686.2560
4029.0000;4653.9060
4030.0000;4637.6020
4031.0000;4651.8820
4032.0000;4659.0430
4033.0000;4661.2600
4034.0000;4659.9600
4035.0000;4665.1930
4036.0000;4653.1080
4037.0000;4635.5970
4038.0000;4651.7270
4039.0000;4669.7720
4040.0000;4670.3860
4041.0000;4648.3690
4042.0000;4652.2590
4043.0000;4680.5930
4044.0000;4689.6060
4045.0000;4676.2610
4046.0000;4652.2840
4047.0000;4644.4560
4048.0000;4661.4320
4049.0000;4686.3880
4050.0000;4687.6030
4051.0000;4682.6720
4052.0000;4671.7500
4053.0000;4655.2260
4054.0000;4654.5560
4055.0000;4670.2990
4056.0000;4686.7080
4057.0000;4672.1140
4058.0000;4643.1680
4059.0000;4635.9090
4060.0000;4664.5090
4061.0000;4691.2960
4062.0000;4679.8960
4063.0000;4694.6640
4064.0000;4709.8120
4065.0000;4703.5410
4066.0000;4713.4710
4067.0000;4720.3560
4068.0000;4710.8940
4069.0000;4697.8750
4070.0000;4696.9320
4071.0000;4710.7250
4072.0000;4711.2280
4073.0000;4702.2250
4074.0000;4693.3610
4075.0000;4699.8120
4076.0000;4698.8910
4077.0000;4684.6430
4078.0000;4674.7170
4079.0000;4660.0840
4080.0000;4645.7610
4081.0000;4642.2820
4082.0000;4635.1790
4083.0000;4625.3300
4084.0000;4621.0390
4085.0000;4598.3600
4086.0000;4578.8250
4087.0000;4592.5600
4088.0000;4585.8030
4089.0000;4570.9180
4090.0000;4572.4400
4091.0000;4569.2300
4092.0000;4565.3600
4093.0000;4564.5010
4094.0000;4558.2640
4095.0000;4552.6720
4096.0000;4551.8460
4097.0000;4545.6970
4098.0000;4561.8430
4099.0000;4591.5420
4100.0000;4570.6550
4101.0000;4550.2630
4102.0000;4551.0120
4103.0000;4543.1420
4104.0000;4552.8050
4105.0000;4567.8460
4106.0000;4553.4940
4107.0000;4529.3810
4108.0000;4502.2620
4109.0000;4474.2930
4110.0000;4451.6810
4111.0000;4420.4860
4112.0000;4372.9210
4113.0000;4374.4240
4114.0000;4374.6250
4115.0000;4322.7980
4116.0000;4262.4380
4117.0000;4221.6230
4118.0000;4205.4000
4119.0000;4162.6610
4120.0000;4111.6400
4121.0000;4060.1770
4122.0000;4002.5690
4123.0000;3958.1080
4124.0000;3934.0260
4125.0000;3912.9440
4126.0000;3863.2930
4127.0000;3801.6540
4128.0000;3760.5180
4129.0000;3729.2660
4130.0000;3691.7150
4131.0000;3631.2630
4132.0000;3569.5520
4133.0000;3527.4450
4134.0000;3501.3360
4135.0000;3441.6260
4136.0000;3368.5720
4137.0000;3304.1160
4138.0000;3256.4840
4139.0000;3193.3270
4140.0000;3122.0010
4141.0000;3066.5990
4142.0000;3018.4710
4143.0000;2976.8500
4144.0000;2930.4770
4145.0000;2863.5640
4146.0000;2816.0310
4147.0000;2802.1860
4148.0000;2739.3920
4149.0000;2686.2140
4150.0000;2666.8360
4151.0000;2628.5320
4152.0000;2599.0740
4153.0000;2579.1620
4154.0000;2546.4550
4155.0000;2501.4320
4156.0000;2463.7760
4157.0000;2449.2530
4158.0000;2407.5660
4159.0000;2357.7940
4160.0000;2324.5670
4161.0000;2304.4970
4162.0000;2278.4260
4163.0000;2239.9820
4164.0000;2213.6400
4165.0000;2200.5420
4166.0000;2192.4350
4167.0000;2170.6890
4168.0000;2148.8120
4169.0000;2139.5260
4170.0000;2145.4640
4171.0000;2131.6700
4172.0000;2122.8130
4173.0000;2131.7650
4174.0000;2121.6400
4175.0000;2104.8560
4176.0000;2091.9570
4177.0000;2085.4450
4178.0000;2070.1560
4179.0000;2058.4130
4180.0000;2067.6590
4181.0000;2058.2270
4182.0000;2033.2700
4183.0000;2009.9540
4184.0000;1998.5820
4185.0000;1993.9260
4186.0000;1995.7110
4187.0000;2018.2420
4188.0000;2019.0040
4189.0000;2006.2650
4190.0000;2020.3710
4191.0000;2035.0880
4192.0000;2040.0330
4193.0000;2033.8760
4194.0000;2034.9600
4195.0000;2027.8080
4196.0000;2012.4180
4197.0000;2013.2490
4198.0000;2018.1230
4199.0000;2012.1040
4200.0000;1985.7190
4201.0000;1986.8790
4202.0000;1997.3770
4203.0000;1989.8900
4204.0000;1996.0900
4205.0000;1991.9530
4206.0000;1982.7070
4207.0000;2018.9310
4208.0000;2040.4360
4209.0000;2034.8190
4210.0000;2025.8480
4211.0000;2018.6670
4212.0000;2016.8310
4213.0000;2018.5810
4214.0000;2015.7530
4215.0000;2013.4190
4216.0000;2010.1070
4217.0000;1997.1680
4218.0000;1976.1770
4219.0000;1965.3440
4220.0000;1980.6620
4221.0000;2001.3020
4222.0000;2005.5000
4223.0000;1986.4240
4224.0000;1970.3330
4225.0000;1971.7110
4226.0000;1991.7320
4227.0000;2010.2140
4228.0000;1964.4560
4229.0000;1926.3120
4230.0000;1964.9710
4231.0000;1976.3640
4232.0000;1971.6230
4233.0000;1966.0620
4234.0000;1979.8730
4235.0000;1983.7190
4236.0000;1781.7720
4237.0000;1258.0080
4238.0000;664.6333
