Raman Shift ; Dark Subtracted #1
-2.0000;7649.5220
-1.0000;7309.3010
0.0000;6752.2690
1.0000;5949.6110
2.0000;4909.2460
3.0000;3724.4590
4.0000;2628.0940
5.0000;1681.6070
6.0000;1006.7800
7.0000;699.8397
8.0000;484.4078
9.0000;383.4950
10.0000;445.4674
11.0000;439.3544
12.0000;279.6030
13.0000;118.0150
14.0000;0.9092
15.0000;-36.8714
16.0000;-13.0899
17.0000;10.8261
18.0000;6.5374
19.0000;5.1098
20.0000;5.3253
21.0000;6.6809
22.0000;9.6106
23.0000;12.4313
24.0000;14.2008
25.0000;14.9978
26.0000;15.0118
27.0000;14.3365
28.0000;12.8328
29.0000;11.2213
30.0000;9.3509
31.0000;8.3767
32.0000;9.3820
33.0000;14.4024
34.0000;20.6653
35.0000;24.4366
36.0000;22.1934
37.0000;16.2646
38.0000;10.3335
39.0000;8.3371
40.0000;8.9895
41.0000;10.5180
42.0000;10.9885
43.0000;11.3994
44.0000;11.5996
45.0000;11.5205
46.0000;11.0581
47.0000;10.3058
48.0000;8.2580
49.0000;6.3501
50.0000;6.6415
51.0000;12.0181
52.0000;20.5970
53.0000;27.9376
54.0000;29.6808
55.0000;26.3808
56.0000;22.4796
57.0000;22.8854
58.0000;26.2544
59.0000;30.4583
60.0000;32.3834
61.0000;33.2484
62.0000;36.6178
63.0000;47.5192
64.0000;62.9760
65.0000;77.8718
66.0000;86.3763
67.0000;88.2731
68.0000;92.1178
69.0000;108.9869
70.0000;135.1141
71.0000;162.3988
72.0000;185.1953
73.0000;199.7703
74.0000;212.3930
75.0000;234.5003
76.0000;259.9182
77.0000;285.6618
78.0000;313.9567
79.0000;339.3335
80.0000;362.2848
81.0000;389.0424
82.0000;414.1529
83.0000;439.1805
84.0000;471.2842
85.0000;505.2478
86.0000;537.5896
87.0000;572.1880
88.0000;602.5346
89.0000;631.5564
90.0000;668.6284
91.0000;708.3273
92.0000;747.7959
93.0000;794.1827
94.0000;840.1544
95.0000;884.4797
96.0000;934.1094
97.0000;981.8817
98.0000;1025.5430
99.0000;1077.6710
100.0000;1131.7630
101.0000;1177.5230
102.0000;1225.8770
103.0000;1267.9000
104.0000;1302.5370
105.0000;1341.1430
106.0000;1378.1330
107.0000;1413.1770
108.0000;1462.6360
109.0000;1518.2720
110.0000;1570.7090
111.0000;1623.1080
112.0000;1667.4800
113.0000;1701.7030
114.0000;1743.8920
115.0000;1788.4430
116.0000;1829.6980
117.0000;1875.3750
118.0000;1920.2360
119.0000;1959.1210
120.0000;1998.9630
121.0000;2034.3340
122.0000;2062.7510
123.0000;2094.7130
124.0000;2126.3840
125.0000;2152.8970
126.0000;2180.3110
127.0000;2204.8860
128.0000;2224.5280
129.0000;2246.0180
130.0000;2266.6350
131.0000;2285.2360
132.0000;2308.2430
133.0000;2333.5020
134.0000;2356.9440
135.0000;2380.1490
136.0000;2399.8690
137.0000;2416.0980
138.0000;2435.3040
139.0000;2455.9880
140.0000;2474.0190
141.0000;2494.7570
142.0000;2515.8490
143.0000;2533.0790
144.0000;2551.6190
145.0000;2567.1230
146.0000;2579.2090
147.0000;2594.7250
148.0000;2610.4840
149.0000;2622.4470
150.0000;2631.2870
151.0000;2634.6560
152.0000;2633.3720
153.0000;2632.1310
154.0000;2630.6140
155.0000;2630.8470
156.0000;2637.8950
157.0000;2651.5340
158.0000;2665.0420
159.0000;2671.3960
160.0000;2668.3500
161.0000;2661.0850
162.0000;2655.1580
163.0000;2651.6540
164.0000;2651.7570
165.0000;2657.5650
166.0000;2669.8870
167.0000;2683.6220
168.0000;2694.9790
169.0000;2701.3100
170.0000;2705.6360
171.0000;2711.9610
172.0000;2719.0110
173.0000;2725.9790
174.0000;2735.2690
175.0000;2745.0620
176.0000;2754.6130
177.0000;2767.1320
178.0000;2779.0790
179.0000;2788.5480
180.0000;2794.7270
181.0000;2795.8130
182.0000;2795.7610
183.0000;2801.9880
184.0000;2812.1180
185.0000;2820.7630
186.0000;2824.7110
187.0000;2823.0300
188.0000;2820.5190
189.0000;2824.0000
190.0000;2830.9990
191.0000;2837.5540
192.0000;2839.5250
193.0000;2837.3100
194.0000;2834.9200
195.0000;2836.8370
196.0000;2841.8970
197.0000;2847.9640
198.0000;2853.3890
199.0000;2857.9610
200.0000;2862.0130
201.0000;2867.4990
202.0000;2872.1430
203.0000;2874.6750
204.0000;2874.3830
205.0000;2871.3170
206.0000;2869.0380
207.0000;2870.0990
208.0000;2874.4730
209.0000;2881.8760
210.0000;2894.6880
211.0000;2907.8240
212.0000;2916.4770
213.0000;2914.4520
214.0000;2905.0930
215.0000;2897.6000
216.0000;2901.5510
217.0000;2912.0860
218.0000;2923.6720
219.0000;2931.0200
220.0000;2937.5500
221.0000;2948.1910
222.0000;2971.3200
223.0000;2994.0460
224.0000;3004.3810
225.0000;2990.9180
226.0000;2965.7750
227.0000;2947.6790
228.0000;2952.0360
229.0000;2969.5310
230.0000;2989.0830
231.0000;3004.0310
232.0000;3016.2900
233.0000;3025.3250
234.0000;3030.0590
235.0000;3030.2440
236.0000;3031.6040
237.0000;3036.6190
238.0000;3042.1380
239.0000;3048.5830
240.0000;3056.0090
241.0000;3061.3090
242.0000;3062.7960
243.0000;3058.6770
244.0000;3053.2920
245.0000;3053.2240
246.0000;3060.7360
247.0000;3071.0920
248.0000;3079.9440
249.0000;3085.4100
250.0000;3088.9210
251.0000;3093.5010
252.0000;3098.2890
253.0000;3102.0100
254.0000;3105.2320
255.0000;3107.1590
256.0000;3109.2720
257.0000;3115.3630
258.0000;3124.1160
259.0000;3130.8690
260.0000;3131.9270
261.0000;3126.8170
262.0000;3120.3280
263.0000;3117.1640
264.0000;3118.0660
265.0000;3123.5740
266.0000;3135.1310
267.0000;3151.0910
268.0000;3165.9170
269.0000;3175.6440
270.0000;3178.4900
271.0000;3178.7250
272.0000;3182.5170
273.0000;3185.8970
274.0000;3188.6520
275.0000;3191.9600
276.0000;3194.0980
277.0000;3195.2000
278.0000;3193.6770
279.0000;3192.1720
280.0000;3195.2950
281.0000;3208.3360
282.0000;3225.4200
283.0000;3239.9130
284.0000;3247.2650
285.0000;3248.1480
286.0000;3247.7420
287.0000;3248.5640
288.0000;3249.6140
289.0000;3254.0360
290.0000;3263.8360
291.0000;3275.7520
292.0000;3289.1350
293.0000;3303.5620
294.0000;3313.0160
295.0000;3314.1660
296.0000;3303.7150
297.0000;3289.0500
298.0000;3280.4480
299.0000;3281.4310
300.0000;3289.7190
301.0000;3304.1160
302.0000;3323.1010
303.0000;3339.9050
304.0000;3346.5040
305.0000;3340.3260
306.0000;3332.5810
307.0000;3337.9090
308.0000;3355.1510
309.0000;3372.7390
310.0000;3383.4250
311.0000;3385.6370
312.0000;3383.6880
313.0000;3383.4790
314.0000;3382.3550
315.0000;3381.0890
316.0000;3379.2800
317.0000;3378.8920
318.0000;3382.9600
319.0000;3396.3100
320.0000;3413.5940
321.0000;3428.1290
322.0000;3433.0940
323.0000;3432.0290
324.0000;3434.8180
325.0000;3451.4130
326.0000;3470.1490
327.0000;3482.8380
328.0000;3483.3660
329.0000;3475.3500
330.0000;3468.0530
331.0000;3466.0490
332.0000;3465.6880
333.0000;3465.3940
334.0000;3464.7080
335.0000;3464.9300
336.0000;3465.2690
337.0000;3465.4230
338.0000;3469.4850
339.0000;3481.6360
340.0000;3502.7430
341.0000;3524.3760
342.0000;3542.2600
343.0000;3552.5400
344.0000;3556.5350
345.0000;3559.0610
346.0000;3558.0400
347.0000;3558.9510
348.0000;3571.8720
349.0000;3592.2310
350.0000;3608.1580
351.0000;3611.0750
352.0000;3602.0980
353.0000;3593.0940
354.0000;3595.8300
355.0000;3604.5600
356.0000;3613.2040
357.0000;3618.1680
358.0000;3619.7860
359.0000;3619.6520
360.0000;3618.4910
361.0000;3616.2440
362.0000;3615.0920
363.0000;3615.9700
364.0000;3619.1240
365.0000;3624.9560
366.0000;3633.1340
367.0000;3642.6770
368.0000;3652.2290
369.0000;3660.7260
370.0000;3667.1790
371.0000;3672.0010
372.0000;3674.1080
373.0000;3676.1510
374.0000;3684.6510
375.0000;3697.7230
376.0000;3709.6280
377.0000;3715.0820
378.0000;3713.1390
379.0000;3709.8560
380.0000;3713.7860
381.0000;3720.8120
382.0000;3725.9240
383.0000;3722.5690
384.0000;3715.2250
385.0000;3712.6000
386.0000;3726.3930
387.0000;3745.9630
388.0000;3760.0660
389.0000;3758.2140
390.0000;3746.7310
391.0000;3737.0100
392.0000;3734.5540
393.0000;3737.1130
394.0000;3743.5140
395.0000;3752.9270
396.0000;3765.4390
397.0000;3779.3190
398.0000;3793.8130
399.0000;3805.0360
400.0000;3811.6170
401.0000;3811.4880
402.0000;3810.4220
403.0000;3819.1730
404.0000;3835.6030
405.0000;3849.5820
406.0000;3853.1690
407.0000;3846.8220
408.0000;3841.5630
409.0000;3850.0800
410.0000;3866.6720
411.0000;3884.9300
412.0000;3900.9590
413.0000;3911.6790
414.0000;3916.1960
415.0000;3914.5420
416.0000;3906.4450
417.0000;3900.2630
418.0000;3901.8440
419.0000;3905.7510
420.0000;3906.9810
421.0000;3903.1970
422.0000;3897.7760
423.0000;3893.3490
424.0000;3891.0360
425.0000;3892.1030
426.0000;3897.5370
427.0000;3907.6180
428.0000;3918.5700
429.0000;3928.1940
430.0000;3934.1620
431.0000;3937.0210
432.0000;3938.5720
433.0000;3937.5090
434.0000;3937.2540
435.0000;3941.0420
436.0000;3947.9890
437.0000;3957.3640
438.0000;3971.0740
439.0000;3983.5510
440.0000;3991.7140
441.0000;3991.7270
442.0000;3986.0610
443.0000;3982.8400
444.0000;3985.7220
445.0000;3991.6670
446.0000;3999.4100
447.0000;4008.2630
448.0000;4015.6250
449.0000;4019.9810
450.0000;4019.4570
451.0000;4017.8800
452.0000;4020.0930
453.0000;4025.8890
454.0000;4034.5340
455.0000;4046.8810
456.0000;4061.1910
457.0000;4076.1280
458.0000;4092.3380
459.0000;4106.0590
460.0000;4118.5310
461.0000;4135.1740
462.0000;4148.0340
463.0000;4157.6930
464.0000;4163.8030
465.0000;4165.7070
466.0000;4169.6800
467.0000;4177.2320
468.0000;4187.5790
469.0000;4201.8410
470.0000;4219.7790
471.0000;4241.9520
472.0000;4274.2460
473.0000;4311.9040
474.0000;4343.8350
475.0000;4365.8990
476.0000;4371.3860
477.0000;4370.7950
478.0000;4383.6600
479.0000;4396.9050
480.0000;4402.2000
481.0000;4394.3910
482.0000;4375.9950
483.0000;4358.1200
484.0000;4349.8440
485.0000;4345.2340
486.0000;4335.8620
487.0000;4317.6420
488.0000;4300.1150
489.0000;4288.3830
490.0000;4286.4950
491.0000;4288.4350
492.0000;4282.2490
493.0000;4269.1440
494.0000;4258.7020
495.0000;4257.1260
496.0000;4265.4880
497.0000;4277.2570
498.0000;4286.3540
499.0000;4292.6880
500.0000;4295.8000
501.0000;4295.0510
502.0000;4291.0570
503.0000;4289.4560
504.0000;4294.3280
505.0000;4302.3900
506.0000;4310.9410
507.0000;4318.6610
508.0000;4323.9830
509.0000;4326.0830
510.0000;4323.8380
511.0000;4320.2120
512.0000;4320.2670
513.0000;4324.0600
514.0000;4328.7410
515.0000;4331.5510
516.0000;4332.8220
517.0000;4334.9170
518.0000;4340.8270
519.0000;4347.9330
520.0000;4353.8270
521.0000;4354.9730
522.0000;4355.0090
523.0000;4360.9230
524.0000;4379.1060
525.0000;4398.4410
526.0000;4411.2370
527.0000;4412.5760
528.0000;4406.4870
529.0000;4400.4670
530.0000;4395.4900
531.0000;4392.7220
532.0000;4393.7480
533.0000;4399.9190
534.0000;4411.2790
535.0000;4427.0350
536.0000;4445.1830
537.0000;4462.4000
538.0000;4477.9700
539.0000;4488.0840
540.0000;4498.7120
541.0000;4514.6760
542.0000;4527.4160
543.0000;4534.4520
544.0000;4533.3990
545.0000;4528.3030
546.0000;4528.9880
547.0000;4536.5810
548.0000;4544.6040
549.0000;4547.8500
550.0000;4545.9580
551.0000;4544.2890
552.0000;4549.5470
553.0000;4558.3960
554.0000;4564.8000
555.0000;4563.2780
556.0000;4557.7360
557.0000;4556.4280
558.0000;4566.1130
559.0000;4578.1930
560.0000;4582.6170
561.0000;4574.5640
562.0000;4563.0350
563.0000;4560.0850
564.0000;4567.6420
565.0000;4577.8400
566.0000;4581.5030
567.0000;4579.3650
568.0000;4577.3700
569.0000;4582.7260
570.0000;4591.1410
571.0000;4595.8160
572.0000;4591.0420
573.0000;4581.3310
574.0000;4573.8230
575.0000;4572.8220
576.0000;4576.3990
577.0000;4582.3600
578.0000;4589.9720
579.0000;4596.0590
580.0000;4595.2430
581.0000;4586.9020
582.0000;4578.7420
583.0000;4579.7220
584.0000;4588.9730
585.0000;4599.7840
586.0000;4608.8350
587.0000;4614.0090
588.0000;4614.3750
589.0000;4607.5520
590.0000;4597.5840
591.0000;4593.9300
592.0000;4601.9090
593.0000;4613.5580
594.0000;4620.2650
595.0000;4618.9250
596.0000;4616.1300
597.0000;4618.8130
598.0000;4626.3700
599.0000;4635.1400
600.0000;4645.7640
601.0000;4653.9610
602.0000;4656.3610
603.0000;4648.2290
604.0000;4634.9700
605.0000;4626.8190
606.0000;4630.4980
607.0000;4642.0930
608.0000;4655.3990
609.0000;4668.9320
610.0000;4681.1880
611.0000;4691.5810
612.0000;4697.8850
613.0000;4701.1320
614.0000;4704.7210
615.0000;4707.3450
616.0000;4712.7610
617.0000;4725.6000
618.0000;4742.3370
619.0000;4760.3900
620.0000;4778.8170
621.0000;4795.3400
622.0000;4814.3420
623.0000;4833.6670
624.0000;4853.5580
625.0000;4884.5790
626.0000;4921.6820
627.0000;4953.4540
628.0000;4979.0890
629.0000;4990.7630
630.0000;4998.2450
631.0000;5022.0450
632.0000;5042.6380
633.0000;5051.3700
634.0000;5044.0360
635.0000;5021.3520
636.0000;4994.8750
637.0000;4970.6000
638.0000;4947.0630
639.0000;4922.3670
640.0000;4901.9540
641.0000;4889.5220
642.0000;4879.4150
643.0000;4878.3390
644.0000;4882.8510
645.0000;4886.4010
646.0000;4892.3330
647.0000;4897.5710
648.0000;4900.3060
649.0000;4900.4310
650.0000;4899.2840
651.0000;4896.9470
652.0000;4893.2750
653.0000;4888.1800
654.0000;4882.7440
655.0000;4880.5620
656.0000;4885.8520
657.0000;4896.5820
658.0000;4904.0000
659.0000;4900.3730
660.0000;4889.5910
661.0000;4879.5110
662.0000;4874.5910
663.0000;4871.9450
664.0000;4866.1080
665.0000;4856.1570
666.0000;4851.9140
667.0000;4863.3550
668.0000;4888.0940
669.0000;4909.0550
670.0000;4906.5180
671.0000;4885.4710
672.0000;4865.6370
673.0000;4863.8100
674.0000;4871.1740
675.0000;4877.0320
676.0000;4875.5850
677.0000;4874.0130
678.0000;4876.9070
679.0000;4885.0510
680.0000;4895.6610
681.0000;4908.1560
682.0000;4920.1630
683.0000;4930.2730
684.0000;4939.9090
685.0000;4945.1140
686.0000;4948.2970
687.0000;4952.7770
688.0000;4953.2100
689.0000;4948.7010
690.0000;4938.2220
691.0000;4926.6480
692.0000;4918.7360
693.0000;4917.0400
694.0000;4921.3650
695.0000;4932.1270
696.0000;4946.8360
697.0000;4956.2740
698.0000;4950.3120
699.0000;4937.1300
700.0000;4931.0110
701.0000;4939.5660
702.0000;4957.0690
703.0000;4978.5500
704.0000;4999.9680
705.0000;5018.8170
706.0000;5035.8140
707.0000;5045.2330
708.0000;5048.3450
709.0000;5049.8260
710.0000;5046.3000
711.0000;5043.8350
712.0000;5046.0160
713.0000;5051.4130
714.0000;5061.5260
715.0000;5075.9320
716.0000;5086.4440
717.0000;5084.1560
718.0000;5068.8430
719.0000;5055.4370
720.0000;5058.7970
721.0000;5074.8760
722.0000;5093.5980
723.0000;5106.9900
724.0000;5115.7220
725.0000;5121.3650
726.0000;5123.0540
727.0000;5121.0060
728.0000;5120.0400
729.0000;5120.1960
730.0000;5122.6740
731.0000;5131.1450
732.0000;5142.5220
733.0000;5150.6560
734.0000;5149.5910
735.0000;5143.0880
736.0000;5139.5720
737.0000;5143.8440
738.0000;5149.7750
739.0000;5152.6300
740.0000;5151.2350
741.0000;5147.7780
742.0000;5144.5820
743.0000;5141.6620
744.0000;5139.8000
745.0000;5138.9250
746.0000;5140.1220
747.0000;5142.7150
748.0000;5146.5940
749.0000;5150.8680
750.0000;5155.2650
751.0000;5158.8780
752.0000;5159.6280
753.0000;5155.3420
754.0000;5147.2340
755.0000;5141.4000
756.0000;5143.2340
757.0000;5150.7430
758.0000;5159.8010
759.0000;5167.9780
760.0000;5173.5010
761.0000;5174.2190
762.0000;5168.6040
763.0000;5161.9540
764.0000;5159.5080
765.0000;5162.3660
766.0000;5170.6000
767.0000;5186.7870
768.0000;5204.1640
769.0000;5213.6490
770.0000;5207.6430
771.0000;5194.5720
772.0000;5188.6920
773.0000;5192.5420
774.0000;5201.2570
775.0000;5210.6040
776.0000;5220.2600
777.0000;5227.6000
778.0000;5233.4170
779.0000;5234.0420
780.0000;5231.1550
781.0000;5224.5650
782.0000;5216.8710
783.0000;5210.4790
784.0000;5207.8040
785.0000;5213.3580
786.0000;5234.2190
787.0000;5264.5200
788.0000;5283.6190
789.0000;5274.4730
790.0000;5249.6730
791.0000;5233.9000
792.0000;5241.0070
793.0000;5257.5030
794.0000;5269.0650
795.0000;5274.1610
796.0000;5277.1560
797.0000;5280.9840
798.0000;5285.1900
799.0000;5294.1530
800.0000;5315.0860
801.0000;5336.4990
802.0000;5350.2590
803.0000;5349.3510
804.0000;5342.8900
805.0000;5346.4070
806.0000;5358.3020
807.0000;5371.0540
808.0000;5379.5010
809.0000;5383.0950
810.0000;5384.9880
811.0000;5388.2900
812.0000;5388.7960
813.0000;5385.4820
814.0000;5377.3860
815.0000;5370.8210
816.0000;5372.6920
817.0000;5382.9080
818.0000;5394.1530
819.0000;5401.0160
820.0000;5403.3130
821.0000;5401.7640
822.0000;5395.8860
823.0000;5389.2410
824.0000;5388.2110
825.0000;5394.4160
826.0000;5405.4960
827.0000;5419.0010
828.0000;5432.7010
829.0000;5444.9400
830.0000;5454.6550
831.0000;5459.3250
832.0000;5463.9630
833.0000;5470.1680
834.0000;5472.9070
835.0000;5472.0040
836.0000;5466.4780
837.0000;5458.1300
838.0000;5449.4740
839.0000;5441.5080
840.0000;5434.7750
841.0000;5428.2820
842.0000;5425.9790
843.0000;5427.8080
844.0000;5434.3770
845.0000;5442.7230
846.0000;5447.6780
847.0000;5449.0760
848.0000;5450.1520
849.0000;5456.5710
850.0000;5461.4860
851.0000;5458.1160
852.0000;5441.2710
853.0000;5425.5930
854.0000;5429.4920
855.0000;5452.9510
856.0000;5474.6870
857.0000;5469.5950
858.0000;5447.4870
859.0000;5431.6500
860.0000;5437.2250
861.0000;5454.9040
862.0000;5474.3210
863.0000;5491.4490
864.0000;5505.8010
865.0000;5517.3560
866.0000;5521.6050
867.0000;5521.0390
868.0000;5519.4560
869.0000;5515.5300
870.0000;5514.0310
871.0000;5516.5350
872.0000;5524.6170
873.0000;5541.5240
874.0000;5564.7550
875.0000;5584.0980
876.0000;5593.0370
877.0000;5590.3160
878.0000;5585.2720
879.0000;5584.1660
880.0000;5582.7960
881.0000;5582.0350
882.0000;5582.1450
883.0000;5581.5670
884.0000;5574.4850
885.0000;5566.8280
886.0000;5570.8600
887.0000;5598.7250
888.0000;5635.2740
889.0000;5660.8410
890.0000;5664.8620
891.0000;5657.8540
892.0000;5657.5130
893.0000;5660.3220
894.0000;5664.0000
895.0000;5667.5790
896.0000;5672.3420
897.0000;5681.8280
898.0000;5698.3620
899.0000;5711.7100
900.0000;5711.9200
901.0000;5697.6510
902.0000;5685.4560
903.0000;5691.5210
904.0000;5711.4270
905.0000;5733.9980
906.0000;5754.9960
907.0000;5769.5920
908.0000;5774.8570
909.0000;5767.3000
910.0000;5756.9500
911.0000;5758.2360
912.0000;5767.3970
913.0000;5776.2830
914.0000;5780.1470
915.0000;5781.2140
916.0000;5782.2760
917.0000;5783.4470
918.0000;5786.3500
919.0000;5794.3120
920.0000;5805.4030
921.0000;5815.7240
922.0000;5822.1560
923.0000;5825.8230
924.0000;5832.5600
925.0000;5843.5980
926.0000;5854.5910
927.0000;5866.0630
928.0000;5874.4590
929.0000;5876.6000
930.0000;5871.5700
931.0000;5861.1230
932.0000;5853.9790
933.0000;5854.6730
934.0000;5861.3570
935.0000;5874.0540
936.0000;5889.8630
937.0000;5899.8090
938.0000;5894.9200
939.0000;5879.5780
940.0000;5869.3070
941.0000;5871.5600
942.0000;5880.3850
943.0000;5888.4240
944.0000;5895.1460
945.0000;5901.5210
946.0000;5909.0640
947.0000;5914.4400
948.0000;5916.8120
949.0000;5914.2230
950.0000;5911.5000
951.0000;5916.9130
952.0000;5930.6600
953.0000;5945.8010
954.0000;5957.0330
955.0000;5963.3240
956.0000;5970.5310
957.0000;5981.8830
958.0000;5990.9290
959.0000;5996.4740
960.0000;5996.0870
961.0000;5992.6240
962.0000;5990.5830
963.0000;5989.2920
964.0000;5990.4390
965.0000;5995.0070
966.0000;6002.2370
967.0000;6010.7790
968.0000;6019.6510
969.0000;6025.6230
970.0000;6026.0880
971.0000;6022.5240
972.0000;6023.5440
973.0000;6034.5730
974.0000;6050.4010
975.0000;6068.1970
976.0000;6083.8830
977.0000;6094.4130
978.0000;6098.9230
979.0000;6095.0290
980.0000;6090.2810
981.0000;6089.5690
982.0000;6091.1680
983.0000;6095.5580
984.0000;6103.0650
985.0000;6112.2360
986.0000;6123.2690
987.0000;6133.2560
988.0000;6142.1600
989.0000;6148.4450
990.0000;6153.0730
991.0000;6163.7620
992.0000;6178.6150
993.0000;6187.0740
994.0000;6180.3530
995.0000;6161.2760
996.0000;6144.8530
997.0000;6139.9510
998.0000;6143.6200
999.0000;6151.4400
1000.0000;6163.5220
1001.0000;6174.2480
1002.0000;6175.3410
1003.0000;6170.9140
1004.0000;6173.8050
1005.0000;6192.9520
1006.0000;6211.7580
1007.0000;6211.6430
1008.0000;6190.9810
1009.0000;6169.9900
1010.0000;6170.2120
1011.0000;6183.8390
1012.0000;6197.2110
1013.0000;6202.5680
1014.0000;6203.4380
1015.0000;6201.0230
1016.0000;6195.6410
1017.0000;6194.8810
1018.0000;6207.3580
1019.0000;6226.5830
1020.0000;6241.7520
1021.0000;6246.8050
1022.0000;6245.3410
1023.0000;6242.3740
1024.0000;6238.4970
1025.0000;6241.3310
1026.0000;6261.3070
1027.0000;6286.6630
1028.0000;6301.3760
1029.0000;6297.2290
1030.0000;6282.3740
1031.0000;6268.0690
1032.0000;6254.8210
1033.0000;6247.7040
1034.0000;6248.7620
1035.0000;6260.0110
1036.0000;6277.8720
1037.0000;6301.7710
1038.0000;6317.8900
1039.0000;6311.9560
1040.0000;6287.5530
1041.0000;6268.8330
1042.0000;6273.6930
1043.0000;6288.1570
1044.0000;6296.9580
1045.0000;6296.2700
1046.0000;6292.4710
1047.0000;6288.4970
1048.0000;6286.1380
1049.0000;6290.8370
1050.0000;6306.5200
1051.0000;6325.1430
1052.0000;6337.8130
1053.0000;6341.9910
1054.0000;6342.7300
1055.0000;6349.8510
1056.0000;6354.8320
1057.0000;6352.4090
1058.0000;6338.5430
1059.0000;6327.0530
1060.0000;6334.6460
1061.0000;6359.4920
1062.0000;6383.1670
1063.0000;6392.6320
1064.0000;6390.2640
1065.0000;6383.0720
1066.0000;6371.9710
1067.0000;6366.6070
1068.0000;6381.7660
1069.0000;6411.0110
1070.0000;6434.0090
1071.0000;6436.3090
1072.0000;6427.1570
1073.0000;6420.9440
1074.0000;6420.2740
1075.0000;6429.9150
1076.0000;6459.3080
1077.0000;6498.1670
1078.0000;6529.7570
1079.0000;6544.2540
1080.0000;6541.2670
1081.0000;6528.8210
1082.0000;6506.5310
1083.0000;6491.9450
1084.0000;6503.8040
1085.0000;6526.9840
1086.0000;6535.8890
1087.0000;6520.3950
1088.0000;6502.4550
1089.0000;6503.4580
1090.0000;6520.5120
1091.0000;6540.8300
1092.0000;6555.6830
1093.0000;6564.5530
1094.0000;6567.9500
1095.0000;6563.5600
1096.0000;6555.8910
1097.0000;6551.1500
1098.0000;6549.3120
1099.0000;6550.8770
1100.0000;6556.4430
1101.0000;6564.8110
1102.0000;6575.2570
1103.0000;6585.0270
1104.0000;6587.9790
1105.0000;6580.3490
1106.0000;6565.8270
1107.0000;6554.1160
1108.0000;6549.8650
1109.0000;6549.3720
1110.0000;6547.7200
1111.0000;6547.5750
1112.0000;6548.4980
1113.0000;6549.7150
1114.0000;6551.9880
1115.0000;6555.1750
1116.0000;6558.7890
1117.0000;6562.6950
1118.0000;6566.4810
1119.0000;6570.3830
1120.0000;6576.6620
1121.0000;6585.7720
1122.0000;6594.2520
1123.0000;6602.0210
1124.0000;6605.3180
1125.0000;6601.7000
1126.0000;6590.2170
1127.0000;6573.7440
1128.0000;6555.8440
1129.0000;6541.7320
1130.0000;6538.6050
1131.0000;6554.4820
1132.0000;6580.8540
1133.0000;6596.3600
1134.0000;6589.2410
1135.0000;6572.1220
1136.0000;6559.5800
1137.0000;6552.1910
1138.0000;6547.2630
1139.0000;6542.9430
1140.0000;6542.3560
1141.0000;6543.8680
1142.0000;6547.2880
1143.0000;6547.6750
1144.0000;6538.4540
1145.0000;6524.4350
1146.0000;6513.0840
1147.0000;6509.4190
1148.0000;6511.1230
1149.0000;6512.7020
1150.0000;6515.8500
1151.0000;6520.3930
1152.0000;6526.5820
1153.0000;6531.6090
1154.0000;6534.0480
1155.0000;6532.3960
1156.0000;6527.4560
1157.0000;6521.5440
1158.0000;6514.2820
1159.0000;6506.0350
1160.0000;6496.3670
1161.0000;6492.6970
1162.0000;6501.1250
1163.0000;6519.1220
1164.0000;6532.9730
1165.0000;6531.3410
1166.0000;6520.6330
1167.0000;6511.4290
1168.0000;6506.1770
1169.0000;6505.2910
1170.0000;6510.5090
1171.0000;6520.1520
1172.0000;6526.4580
1173.0000;6525.6450
1174.0000;6523.1620
1175.0000;6524.0000
1176.0000;6528.5050
1177.0000;6538.1500
1178.0000;6553.8870
1179.0000;6571.4350
1180.0000;6587.0360
1181.0000;6596.5050
1182.0000;6601.2000
1183.0000;6605.7300
1184.0000;6605.4120
1185.0000;6603.9270
1186.0000;6601.8460
1187.0000;6601.5690
1188.0000;6607.3330
1189.0000;6617.0150
1190.0000;6625.1880
1191.0000;6628.7140
1192.0000;6630.1810
1193.0000;6635.5720
1194.0000;6643.0550
1195.0000;6647.8770
1196.0000;6647.5810
1197.0000;6643.3450
1198.0000;6641.1310
1199.0000;6641.7840
1200.0000;6637.3460
1201.0000;6617.4500
1202.0000;6593.1180
1203.0000;6582.8040
1204.0000;6596.9210
1205.0000;6616.7020
1206.0000;6615.9140
1207.0000;6601.5800
1208.0000;6595.8170
1209.0000;6613.3930
1210.0000;6639.0810
1211.0000;6658.7220
1212.0000;6667.7810
1213.0000;6665.2970
1214.0000;6652.4250
1215.0000;6631.3790
1216.0000;6614.9600
1217.0000;6608.6870
1218.0000;6608.4400
1219.0000;6607.9890
1220.0000;6610.6860
1221.0000;6612.7890
1222.0000;6611.5500
1223.0000;6614.2940
1224.0000;6628.7940
1225.0000;6651.0750
1226.0000;6669.9620
1227.0000;6680.0270
1228.0000;6680.9760
1229.0000;6680.7790
1230.0000;6678.1590
1231.0000;6674.3060
1232.0000;6670.9200
1233.0000;6670.0360
1234.0000;6674.8290
1235.0000;6686.0970
1236.0000;6697.6640
1237.0000;6703.3020
1238.0000;6704.2490
1239.0000;6708.2850
1240.0000;6718.4880
1241.0000;6725.9540
1242.0000;6725.9740
1243.0000;6717.2650
1244.0000;6704.3140
1245.0000;6689.4190
1246.0000;6676.8130
1247.0000;6670.6410
1248.0000;6672.9750
1249.0000;6675.7120
1250.0000;6669.3660
1251.0000;6662.8340
1252.0000;6662.2770
1253.0000;6669.6820
1254.0000;6681.3690
1255.0000;6693.7100
1256.0000;6705.6560
1257.0000;6719.2790
1258.0000;6733.0990
1259.0000;6741.2290
1260.0000;6744.0990
1261.0000;6737.9420
1262.0000;6726.5380
1263.0000;6711.2570
1264.0000;6698.7500
1265.0000;6698.4720
1266.0000;6709.2180
1267.0000;6716.9110
1268.0000;6711.2410
1269.0000;6701.7100
1270.0000;6697.2330
1271.0000;6699.4210
1272.0000;6705.2410
1273.0000;6712.4170
1274.0000;6720.8490
1275.0000;6729.4650
1276.0000;6736.5660
1277.0000;6740.7280
1278.0000;6742.6410
1279.0000;6741.9410
1280.0000;6744.0500
1281.0000;6750.0410
1282.0000;6756.3120
1283.0000;6762.4800
1284.0000;6765.4000
1285.0000;6762.2010
1286.0000;6750.8270
1287.0000;6741.5720
1288.0000;6748.9900
1289.0000;6767.0000
1290.0000;6775.7420
1291.0000;6761.6120
1292.0000;6743.2670
1293.0000;6743.4170
1294.0000;6760.9220
1295.0000;6781.7110
1296.0000;6795.5810
1297.0000;6803.5950
1298.0000;6809.9020
1299.0000;6810.6160
1300.0000;6803.4740
1301.0000;6782.2250
1302.0000;6763.9790
1303.0000;6772.1440
1304.0000;6810.3270
1305.0000;6847.3520
1306.0000;6855.6750
1307.0000;6843.9410
1308.0000;6835.8570
1309.0000;6836.8440
1310.0000;6838.5300
1311.0000;6835.6310
1312.0000;6832.5100
1313.0000;6834.6160
1314.0000;6843.9640
1315.0000;6855.6690
1316.0000;6866.3570
1317.0000;6873.0560
1318.0000;6876.5680
1319.0000;6876.1930
1320.0000;6872.1960
1321.0000;6868.1630
1322.0000;6864.3510
1323.0000;6862.8610
1324.0000;6865.0160
1325.0000;6869.5310
1326.0000;6873.0800
1327.0000;6876.1660
1328.0000;6882.7850
1329.0000;6896.1680
1330.0000;6908.2480
1331.0000;6910.2130
1332.0000;6901.6650
1333.0000;6896.7570
1334.0000;6909.9470
1335.0000;6924.3480
1336.0000;6921.6200
1337.0000;6899.9080
1338.0000;6877.1420
1339.0000;6862.3710
1340.0000;6859.9560
1341.0000;6869.8570
1342.0000;6893.0430
1343.0000;6915.4000
1344.0000;6925.6640
1345.0000;6925.2340
1346.0000;6926.5830
1347.0000;6930.1500
1348.0000;6925.3800
1349.0000;6903.8870
1350.0000;6875.2910
1351.0000;6855.0950
1352.0000;6849.9930
1353.0000;6854.3700
1354.0000;6858.1240
1355.0000;6864.1110
1356.0000;6865.7930
1357.0000;6860.6390
1358.0000;6853.8610
1359.0000;6849.7280
1360.0000;6849.4310
1361.0000;6853.1500
1362.0000;6861.4970
1363.0000;6870.9810
1364.0000;6876.3910
1365.0000;6879.1600
1366.0000;6886.0610
1367.0000;6899.6510
1368.0000;6912.0480
1369.0000;6921.9850
1370.0000;6924.1670
1371.0000;6917.5070
1372.0000;6900.3570
1373.0000;6884.7320
1374.0000;6884.9320
1375.0000;6898.6920
1376.0000;6907.8830
1377.0000;6901.8660
1378.0000;6895.6380
1379.0000;6905.8000
1380.0000;6925.9120
1381.0000;6936.5610
1382.0000;6926.0110
1383.0000;6908.6620
1384.0000;6903.0210
1385.0000;6907.0340
1386.0000;6909.7340
1387.0000;6903.2860
1388.0000;6900.7490
1389.0000;6914.1430
1390.0000;6939.9040
1391.0000;6963.6400
1392.0000;6977.3600
1393.0000;6979.1390
1394.0000;6973.3960
1395.0000;6958.4690
1396.0000;6943.2300
1397.0000;6933.7040
1398.0000;6931.3270
1399.0000;6933.8920
1400.0000;6943.6900
1401.0000;6958.6170
1402.0000;6977.8590
1403.0000;6992.7010
1404.0000;6994.1440
1405.0000;6982.5660
1406.0000;6976.7910
1407.0000;6989.8290
1408.0000;7008.3480
1409.0000;7020.7500
1410.0000;7024.4860
1411.0000;7023.3450
1412.0000;7018.2630
1413.0000;7013.5640
1414.0000;7019.5100
1415.0000;7033.8700
1416.0000;7045.3060
1417.0000;7046.3430
1418.0000;7042.6130
1419.0000;7043.7950
1420.0000;7047.8190
1421.0000;7049.9800
1422.0000;7049.8240
1423.0000;7042.4110
1424.0000;7019.3610
1425.0000;6988.9630
1426.0000;6973.8370
1427.0000;6989.4790
1428.0000;7016.2950
1429.0000;7024.3510
1430.0000;7016.4390
1431.0000;7011.3890
1432.0000;7018.7820
1433.0000;7028.2470
1434.0000;7033.0790
1435.0000;7032.1180
1436.0000;7026.9700
1437.0000;7017.9120
1438.0000;7011.1760
1439.0000;7016.3450
1440.0000;7029.3610
1441.0000;7034.5260
1442.0000;7022.8370
1443.0000;7007.4710
1444.0000;7000.1480
1445.0000;7002.2810
1446.0000;7011.0650
1447.0000;7026.0050
1448.0000;7039.6800
1449.0000;7045.4760
1450.0000;7040.3920
1451.0000;7028.2600
1452.0000;7010.2550
1453.0000;6994.7300
1454.0000;6991.4080
1455.0000;6999.2530
1456.0000;7005.8790
1457.0000;7006.5170
1458.0000;7009.7100
1459.0000;7026.0380
1460.0000;7043.3120
1461.0000;7043.9590
1462.0000;7020.7940
1463.0000;7005.7720
1464.0000;7035.7010
1465.0000;7081.9440
1466.0000;7093.9200
1467.0000;7059.0160
1468.0000;7018.0000
1469.0000;7011.4320
1470.0000;7023.8380
1471.0000;7034.0200
1472.0000;7038.1180
1473.0000;7040.3580
1474.0000;7041.8040
1475.0000;7040.6250
1476.0000;7038.3490
1477.0000;7034.8780
1478.0000;7030.0250
1479.0000;7024.1430
1480.0000;7018.4420
1481.0000;7013.3350
1482.0000;7009.9050
1483.0000;7007.0780
1484.0000;7002.8220
1485.0000;7000.5600
1486.0000;7000.5530
1487.0000;7003.5940
1488.0000;7008.4340
1489.0000;7014.2060
1490.0000;7018.2620
1491.0000;7016.6460
1492.0000;7010.7800
1493.0000;7009.3730
1494.0000;7017.3300
1495.0000;7026.7940
1496.0000;7029.3650
1497.0000;7027.4680
1498.0000;7031.6830
1499.0000;7046.6280
1500.0000;7056.3930
1501.0000;7046.5950
1502.0000;7025.6410
1503.0000;7013.3230
1504.0000;7018.4000
1505.0000;7030.5890
1506.0000;7039.3660
1507.0000;7048.3380
1508.0000;7061.4480
1509.0000;7076.7390
1510.0000;7087.8720
1511.0000;7092.7170
1512.0000;7091.6040
1513.0000;7095.9090
1514.0000;7104.7010
1515.0000;7108.9850
1516.0000;7102.7460
1517.0000;7093.1490
1518.0000;7090.8090
1519.0000;7097.0930
1520.0000;7109.1360
1521.0000;7125.3760
1522.0000;7140.7150
1523.0000;7151.9490
1524.0000;7154.9570
1525.0000;7150.6370
1526.0000;7138.4490
1527.0000;7129.4280
1528.0000;7138.0360
1529.0000;7159.0260
1530.0000;7176.5810
1531.0000;7183.4510
1532.0000;7179.1450
1533.0000;7159.9840
1534.0000;7137.0100
1535.0000;7136.2300
1536.0000;7163.2910
1537.0000;7188.8330
1538.0000;7182.2670
1539.0000;7162.4810
1540.0000;7159.7880
1541.0000;7175.0330
1542.0000;7183.6440
1543.0000;7168.7450
1544.0000;7146.2140
1545.0000;7133.0110
1546.0000;7132.9080
1547.0000;7141.7470
1548.0000;7158.8560
1549.0000;7173.9790
1550.0000;7173.3330
1551.0000;7159.0710
1552.0000;7145.2640
1553.0000;7139.3040
1554.0000;7134.7700
1555.0000;7118.9240
1556.0000;7107.9490
1557.0000;7121.5070
1558.0000;7164.2320
1559.0000;7205.0200
1560.0000;7221.2440
1561.0000;7213.2520
1562.0000;7196.3640
1563.0000;7171.9400
1564.0000;7151.0890
1565.0000;7144.1390
1566.0000;7147.5480
1567.0000;7151.8160
1568.0000;7155.9670
1569.0000;7150.4290
1570.0000;7128.0270
1571.0000;7107.7780
1572.0000;7109.7790
1573.0000;7128.0220
1574.0000;7137.7440
1575.0000;7129.6710
1576.0000;7117.1110
1577.0000;7112.9290
1578.0000;7110.8950
1579.0000;7099.6880
1580.0000;7081.3410
1581.0000;7073.6780
1582.0000;7091.1590
1583.0000;7116.9630
1584.0000;7124.1630
1585.0000;7112.2640
1586.0000;7102.7850
1587.0000;7108.6010
1588.0000;7118.5180
1589.0000;7123.0390
1590.0000;7122.5420
1591.0000;7120.2900
1592.0000;7117.2440
1593.0000;7111.7060
1594.0000;7099.9270
1595.0000;7090.2130
1596.0000;7093.6060
1597.0000;7111.6970
1598.0000;7122.6060
1599.0000;7105.0800
1600.0000;7079.3410
1601.0000;7069.5740
1602.0000;7078.5350
1603.0000;7092.9210
1604.0000;7104.2440
1605.0000;7114.7630
1606.0000;7126.5450
1607.0000;7133.7140
1608.0000;7132.4510
1609.0000;7120.8940
1610.0000;7108.5850
1611.0000;7106.1590
1612.0000;7112.0080
1613.0000;7121.3360
1614.0000;7133.0820
1615.0000;7143.5070
1616.0000;7152.3080
1617.0000;7152.7000
1618.0000;7138.3340
1619.0000;7115.3480
1620.0000;7110.2860
1621.0000;7140.0290
1622.0000;7170.3360
1623.0000;7161.0000
1624.0000;7127.5490
1625.0000;7105.4330
1626.0000;7107.5360
1627.0000;7118.3720
1628.0000;7126.8840
1629.0000;7133.5450
1630.0000;7131.8040
1631.0000;7121.8700
1632.0000;7115.5470
1633.0000;7121.6660
1634.0000;7129.8480
1635.0000;7128.0800
1636.0000;7119.6310
1637.0000;7114.1410
1638.0000;7115.7650
1639.0000;7120.4860
1640.0000;7120.7290
1641.0000;7124.5760
1642.0000;7143.4340
1643.0000;7175.0610
1644.0000;7194.2020
1645.0000;7184.7570
1646.0000;7161.5110
1647.0000;7149.6520
1648.0000;7148.6370
1649.0000;7149.0820
1650.0000;7148.5440
1651.0000;7146.8590
1652.0000;7139.8620
1653.0000;7131.5020
1654.0000;7125.0530
1655.0000;7122.9900
1656.0000;7124.2560
1657.0000;7128.7850
1658.0000;7132.2100
1659.0000;7125.0660
1660.0000;7111.5400
1661.0000;7108.5610
1662.0000;7124.9870
1663.0000;7139.3300
1664.0000;7129.6250
1665.0000;7106.1520
1666.0000;7092.4680
1667.0000;7093.3630
1668.0000;7091.9000
1669.0000;7073.9620
1670.0000;7054.8540
1671.0000;7046.6690
1672.0000;7052.0500
1673.0000;7060.6090
1674.0000;7068.0870
1675.0000;7075.6980
1676.0000;7085.2170
1677.0000;7090.2480
1678.0000;7084.8220
1679.0000;7068.0780
1680.0000;7053.9690
1681.0000;7055.3140
1682.0000;7058.1650
1683.0000;7040.2220
1684.0000;7010.9340
1685.0000;6991.4850
1686.0000;6994.6370
1687.0000;7004.7060
1688.0000;6999.6040
1689.0000;6991.9710
1690.0000;6993.1510
1691.0000;7004.3890
1692.0000;7012.2700
1693.0000;7006.8200
1694.0000;6998.3820
1695.0000;7000.3670
1696.0000;7008.7750
1697.0000;7013.2670
1698.0000;7009.3970
1699.0000;7003.0000
1700.0000;7000.4750
1701.0000;6998.0730
1702.0000;6991.7840
1703.0000;6982.2750
1704.0000;6971.2090
1705.0000;6960.0710
1706.0000;6950.4410
1707.0000;6941.5830
1708.0000;6935.4940
1709.0000;6925.5440
1710.0000;6912.1660
1711.0000;6904.9800
1712.0000;6907.0410
1713.0000;6919.8060
1714.0000;6940.3740
1715.0000;6962.8550
1716.0000;6973.2220
1717.0000;6962.7990
1718.0000;6944.6690
1719.0000;6936.2740
1720.0000;6934.3920
1721.0000;6935.0710
1722.0000;6938.0240
1723.0000;6936.7970
1724.0000;6924.6340
1725.0000;6912.7470
1726.0000;6911.8940
1727.0000;6921.8480
1728.0000;6932.1310
1729.0000;6939.2320
1730.0000;6944.6080
1731.0000;6951.4360
1732.0000;6952.9680
1733.0000;6946.9350
1734.0000;6933.2800
1735.0000;6918.1010
1736.0000;6905.3090
1737.0000;6898.5750
1738.0000;6897.6400
1739.0000;6904.7750
1740.0000;6913.0180
1741.0000;6921.1580
1742.0000;6931.3870
1743.0000;6945.9540
1744.0000;6955.5840
1745.0000;6958.1530
1746.0000;6949.9440
1747.0000;6933.0100
1748.0000;6909.1100
1749.0000;6895.8500
1750.0000;6906.3790
1751.0000;6929.4150
1752.0000;6944.5170
1753.0000;6946.5000
1754.0000;6925.1740
1755.0000;6870.2960
1756.0000;6884.3600
1757.0000;7114.4760
1758.0000;7371.9250
1759.0000;7385.5840
1760.0000;7117.6130
1761.0000;6878.2660
1762.0000;6843.1210
1763.0000;6895.8380
1764.0000;6898.7740
1765.0000;6897.9020
1766.0000;6896.2300
1767.0000;6894.4250
1768.0000;6897.5330
1769.0000;6910.3940
1770.0000;6922.0200
1771.0000;6918.0460
1772.0000;6905.2980
1773.0000;6907.6340
1774.0000;6932.3630
1775.0000;6952.4660
1776.0000;6951.1230
1777.0000;6932.9020
1778.0000;6909.1110
1779.0000;6884.2300
1780.0000;6870.8820
1781.0000;6876.2870
1782.0000;6889.0000
1783.0000;6892.4660
1784.0000;6894.0560
1785.0000;6901.0350
1786.0000;6909.7820
1787.0000;6907.8250
1788.0000;6888.7180
1789.0000;6866.8460
1790.0000;6854.3400
1791.0000;6852.2150
1792.0000;6853.6480
1793.0000;6858.2620
1794.0000;6857.0460
1795.0000;6843.0530
1796.0000;6828.1120
1797.0000;6823.0920
1798.0000;6824.7280
1799.0000;6819.8580
1800.0000;6807.9910
1801.0000;6794.7920
1802.0000;6782.5080
1803.0000;6777.3770
1804.0000;6781.3290
1805.0000;6793.4130
1806.0000;6803.6120
1807.0000;6807.5410
1808.0000;6806.3130
1809.0000;6801.6440
1810.0000;6791.2220
1811.0000;6774.0240
1812.0000;6756.5100
1813.0000;6751.2250
1814.0000;6762.7970
1815.0000;6772.6010
1816.0000;6763.7680
1817.0000;6749.0010
1818.0000;6739.3070
1819.0000;6736.4560
1820.0000;6737.0330
1821.0000;6740.9600
1822.0000;6744.7820
1823.0000;6744.4310
1824.0000;6741.1420
1825.0000;6735.2790
1826.0000;6729.1720
1827.0000;6728.6750
1828.0000;6735.7950
1829.0000;6740.5990
1830.0000;6734.6100
1831.0000;6721.9320
1832.0000;6706.5990
1833.0000;6693.0180
1834.0000;6688.6750
1835.0000;6697.7000
1836.0000;6710.7770
1837.0000;6719.3860
1838.0000;6721.4930
1839.0000;6711.6720
1840.0000;6695.6000
1841.0000;6697.4370
1842.0000;6726.0890
1843.0000;6750.5820
1844.0000;6744.6060
1845.0000;6724.7290
1846.0000;6717.8430
1847.0000;6721.0100
1848.0000;6720.3250
1849.0000;6712.0970
1850.0000;6711.1710
1851.0000;6729.2940
1852.0000;6752.4450
1853.0000;6761.7650
1854.0000;6757.7430
1855.0000;6758.4220
1856.0000;6768.3080
1857.0000;6775.5130
1858.0000;6772.9170
1859.0000;6766.2740
1860.0000;6764.6530
1861.0000;6767.9010
1862.0000;6773.9870
1863.0000;6781.9330
1864.0000;6788.8770
1865.0000;6793.5070
1866.0000;6793.0980
1867.0000;6788.3550
1868.0000;6779.6120
1869.0000;6770.3720
1870.0000;6763.5260
1871.0000;6764.5840
1872.0000;6777.8790
1873.0000;6794.0630
1874.0000;6798.9320
1875.0000;6794.7760
1876.0000;6796.5820
1877.0000;6805.3870
1878.0000;6808.9360
1879.0000;6799.2350
1880.0000;6788.5120
1881.0000;6791.2340
1882.0000;6802.9210
1883.0000;6814.1580
1884.0000;6819.2890
1885.0000;6808.4090
1886.0000;6772.4780
1887.0000;6743.9410
1888.0000;6758.3900
1889.0000;6799.4100
1890.0000;6818.7810
1891.0000;6811.6750
1892.0000;6804.2640
1893.0000;6808.9160
1894.0000;6814.3140
1895.0000;6815.2970
1896.0000;6813.6060
1897.0000;6810.3590
1898.0000;6808.7560
1899.0000;6819.8050
1900.0000;6848.0440
1901.0000;6867.2500
1902.0000;6853.1480
1903.0000;6823.8900
1904.0000;6811.5610
1905.0000;6815.4030
1906.0000;6815.2340
1907.0000;6806.4520
1908.0000;6803.8220
1909.0000;6815.6410
1910.0000;6832.5620
1911.0000;6841.5920
1912.0000;6842.2210
1913.0000;6840.5180
1914.0000;6837.1060
1915.0000;6833.8630
1916.0000;6833.6200
1917.0000;6834.0330
1918.0000;6830.8160
1919.0000;6828.3060
1920.0000;6831.8600
1921.0000;6841.9010
1922.0000;6854.9740
1923.0000;6869.6230
1924.0000;6875.2400
1925.0000;6860.4180
1926.0000;6841.5950
1927.0000;6851.6840
1928.0000;6883.4350
1929.0000;6896.1870
1930.0000;6873.1110
1931.0000;6845.4210
1932.0000;6839.2150
1933.0000;6845.1320
1934.0000;6850.1030
1935.0000;6857.3720
1936.0000;6867.4180
1937.0000;6878.6670
1938.0000;6884.9450
1939.0000;6881.4480
1940.0000;6878.4930
1941.0000;6893.6210
1942.0000;6914.1290
1943.0000;6918.3230
1944.0000;6905.0140
1945.0000;6898.9680
1946.0000;6912.0210
1947.0000;6931.2500
1948.0000;6948.4430
1949.0000;6959.1810
1950.0000;6959.7680
1951.0000;6950.6690
1952.0000;6947.4580
1953.0000;6955.4400
1954.0000;6963.7210
1955.0000;6967.0470
1956.0000;6964.5690
1957.0000;6956.6450
1958.0000;6945.0510
1959.0000;6935.4590
1960.0000;6931.7420
1961.0000;6935.4160
1962.0000;6947.5330
1963.0000;6961.4000
1964.0000;6970.1440
1965.0000;6972.2080
1966.0000;6969.4750
1967.0000;6962.5750
1968.0000;6959.3830
1969.0000;6963.1630
1970.0000;6973.8010
1971.0000;6992.0210
1972.0000;7008.6600
1973.0000;7015.6250
1974.0000;7012.0390
1975.0000;7007.1920
1976.0000;7003.2730
1977.0000;7006.9840
1978.0000;7022.9180
1979.0000;7036.6000
1980.0000;7037.0410
1981.0000;7027.3340
1982.0000;7016.6570
1983.0000;7008.5920
1984.0000;7011.6110
1985.0000;7028.0340
1986.0000;7039.2180
1987.0000;7030.6100
1988.0000;7018.2320
1989.0000;7019.1240
1990.0000;7029.2270
1991.0000;7039.6010
1992.0000;7047.9390
1993.0000;7054.1080
1994.0000;7056.6690
1995.0000;7057.7810
1996.0000;7060.2940
1997.0000;7065.3060
1998.0000;7079.2880
1999.0000;7095.3010
2000.0000;7102.0810
2001.0000;7095.3700
2002.0000;7084.9410
2003.0000;7077.3330
2004.0000;7071.5030
2005.0000;7067.2770
2006.0000;7066.1740
2007.0000;7063.6310
2008.0000;7062.0630
2009.0000;7065.0280
2010.0000;7073.5210
2011.0000;7082.2780
2012.0000;7088.7630
2013.0000;7088.9700
2014.0000;7078.3710
2015.0000;7065.2990
2016.0000;7069.1930
2017.0000;7088.2660
2018.0000;7096.7740
2019.0000;7083.2350
2020.0000;7069.7370
2021.0000;7074.0260
2022.0000;7081.5980
2023.0000;7076.3270
2024.0000;7063.0400
2025.0000;7049.5210
2026.0000;7041.2390
2027.0000;7043.4540
2028.0000;7059.6420
2029.0000;7074.0030
2030.0000;7069.4270
2031.0000;7056.2890
2032.0000;7050.9520
2033.0000;7050.3840
2034.0000;7043.9040
2035.0000;7032.8170
2036.0000;7029.6080
2037.0000;7040.8930
2038.0000;7057.1390
2039.0000;7069.3080
2040.0000;7076.8830
2041.0000;7081.0640
2042.0000;7081.2810
2043.0000;7087.1660
2044.0000;7098.3200
2045.0000;7103.4330
2046.0000;7095.5980
2047.0000;7087.6000
2048.0000;7093.3390
2049.0000;7105.2660
2050.0000;7115.2300
2051.0000;7118.2920
2052.0000;7106.9640
2053.0000;7081.4700
2054.0000;7062.9590
2055.0000;7067.2210
2056.0000;7077.2000
2057.0000;7069.3960
2058.0000;7059.3830
2059.0000;7060.9390
2060.0000;7073.5620
2061.0000;7089.0550
2062.0000;7102.4250
2063.0000;7110.7840
2064.0000;7111.3300
2065.0000;7104.2000
2066.0000;7093.3360
2067.0000;7082.9120
2068.0000;7084.4560
2069.0000;7093.5120
2070.0000;7086.9020
2071.0000;7062.4670
2072.0000;7053.5100
2073.0000;7080.0650
2074.0000;7104.4530
2075.0000;7085.8280
2076.0000;7054.6330
2077.0000;7059.6730
2078.0000;7085.9800
2079.0000;7080.1750
2080.0000;7038.1820
2081.0000;7008.1240
2082.0000;7016.6270
2083.0000;7043.6570
2084.0000;7068.8820
2085.0000;7089.9540
2086.0000;7101.0910
2087.0000;7099.5660
2088.0000;7102.2540
2089.0000;7108.8120
2090.0000;7111.0110
2091.0000;7106.1840
2092.0000;7099.4930
2093.0000;7095.5890
2094.0000;7095.7990
2095.0000;7099.1330
2096.0000;7107.9020
2097.0000;7123.5760
2098.0000;7141.8250
2099.0000;7155.7270
2100.0000;7159.4800
2101.0000;7151.7100
2102.0000;7132.1670
2103.0000;7115.9990
2104.0000;7124.4010
2105.0000;7143.9690
2106.0000;7145.0800
2107.0000;7126.4980
2108.0000;7101.1400
2109.0000;7074.5450
2110.0000;7058.5000
2111.0000;7061.4680
2112.0000;7073.6000
2113.0000;7075.0620
2114.0000;7075.1180
2115.0000;7078.3340
2116.0000;7085.8630
2117.0000;7103.4570
2118.0000;7127.2120
2119.0000;7137.4260
2120.0000;7123.3760
2121.0000;7104.2550
2122.0000;7100.6570
2123.0000;7101.7400
2124.0000;7091.8010
2125.0000;7083.2310
2126.0000;7094.4140
2127.0000;7120.5950
2128.0000;7133.3620
2129.0000;7119.7380
2130.0000;7099.1940
2131.0000;7084.4910
2132.0000;7080.0580
2133.0000;7091.5550
2134.0000;7112.1950
2135.0000;7119.8280
2136.0000;7117.0180
2137.0000;7122.2490
2138.0000;7135.5740
2139.0000;7140.5050
2140.0000;7129.4460
2141.0000;7116.3650
2142.0000;7115.0450
2143.0000;7117.0510
2144.0000;7111.3690
2145.0000;7103.0110
2146.0000;7096.2220
2147.0000;7094.4820
2148.0000;7101.7730
2149.0000;7117.8720
2150.0000;7125.8120
2151.0000;7114.4360
2152.0000;7094.8000
2153.0000;7079.4260
2154.0000;7068.4470
2155.0000;7058.3810
2156.0000;7054.9470
2157.0000;7058.1220
2158.0000;7067.5510
2159.0000;7072.6210
2160.0000;7067.7330
2161.0000;7064.4870
2162.0000;7071.1270
2163.0000;7080.6500
2164.0000;7087.9040
2165.0000;7089.6980
2166.0000;7084.7090
2167.0000;7073.1450
2168.0000;7064.0340
2169.0000;7058.9840
2170.0000;7046.1410
2171.0000;7022.1350
2172.0000;7002.5630
2173.0000;6995.3090
2174.0000;7002.3750
2175.0000;7018.3880
2176.0000;7035.6870
2177.0000;7032.5110
2178.0000;7012.5900
2179.0000;7003.9840
2180.0000;7013.0250
2181.0000;7014.4520
2182.0000;6996.2370
2183.0000;6983.0390
2184.0000;6992.6420
2185.0000;7013.5710
2186.0000;7031.7840
2187.0000;7042.9430
2188.0000;7045.3010
2189.0000;7038.2190
2190.0000;7037.9530
2191.0000;7047.3290
2192.0000;7051.5470
2193.0000;7043.9230
2194.0000;7032.2490
2195.0000;7022.7820
2196.0000;7015.6850
2197.0000;7005.4400
2198.0000;7002.1800
2199.0000;7017.8940
2200.0000;7042.9720
2201.0000;7041.3190
2202.0000;7005.6630
2203.0000;6982.8810
2204.0000;6996.3280
2205.0000;7011.7260
2206.0000;6999.4180
2207.0000;6985.1520
2208.0000;6994.2670
2209.0000;7013.5560
2210.0000;7020.1950
2211.0000;7013.7890
2212.0000;7003.8870
2213.0000;6994.6100
2214.0000;6996.2420
2215.0000;7014.5880
2216.0000;7023.3750
2217.0000;7001.5080
2218.0000;6976.1300
2219.0000;6975.8020
2220.0000;6990.8940
2221.0000;7001.6410
2222.0000;7008.0470
2223.0000;7011.5100
2224.0000;7011.3900
2225.0000;7016.4610
2226.0000;7028.3960
2227.0000;7033.6410
2228.0000;7023.3320
2229.0000;7010.1120
2230.0000;7009.5170
2231.0000;7010.9090
2232.0000;6997.9350
2233.0000;6981.2590
2234.0000;6977.9090
2235.0000;6988.1880
2236.0000;6994.6510
2237.0000;6992.6140
2238.0000;6984.2110
2239.0000;6969.8610
2240.0000;6963.7430
2241.0000;6980.0780
2242.0000;6995.3420
2243.0000;6981.7300
2244.0000;6953.8060
2245.0000;6936.4980
2246.0000;6933.8770
2247.0000;6938.4620
2248.0000;6950.9290
2249.0000;6968.2370
2250.0000;6985.5020
2251.0000;6987.3090
2252.0000;6963.3800
2253.0000;6939.3640
2254.0000;6941.5670
2255.0000;6956.8760
2256.0000;6965.1990
2257.0000;6969.3070
2258.0000;6972.5590
2259.0000;6972.8120
2260.0000;6970.3400
2261.0000;6965.8620
2262.0000;6964.5760
2263.0000;6968.9720
2264.0000;6972.9330
2265.0000;6972.8450
2266.0000;6967.7850
2267.0000;6954.2950
2268.0000;6943.9460
2269.0000;6951.7660
2270.0000;6970.0500
2271.0000;6974.6100
2272.0000;6966.8450
2273.0000;6971.4020
2274.0000;6989.3010
2275.0000;6994.8280
2276.0000;6977.0460
2277.0000;6956.7320
2278.0000;6949.0540
2279.0000;6950.0440
2280.0000;6956.8820
2281.0000;6961.5580
2282.0000;6945.9760
2283.0000;6921.0800
2284.0000;6907.5400
2285.0000;6911.3940
2286.0000;6924.2020
2287.0000;6942.9880
2288.0000;6957.0390
2289.0000;6958.2360
2290.0000;6956.3150
2291.0000;6959.1240
2292.0000;6960.6760
2293.0000;6960.7030
2294.0000;6956.3680
2295.0000;6945.8530
2296.0000;6932.4090
2297.0000;6918.7730
2298.0000;6909.7870
2299.0000;6906.3730
2300.0000;6910.8820
2301.0000;6921.4890
2302.0000;6935.1460
2303.0000;6944.1430
2304.0000;6942.5520
2305.0000;6935.3800
2306.0000;6927.6140
2307.0000;6925.5290
2308.0000;6940.6880
2309.0000;6958.2450
2310.0000;6949.4660
2311.0000;6924.4740
2312.0000;6921.2470
2313.0000;6939.6640
2314.0000;6945.3480
2315.0000;6931.1400
2316.0000;6922.3090
2317.0000;6931.4000
2318.0000;6931.9920
2319.0000;6904.9790
2320.0000;6876.4980
2321.0000;6867.1710
2322.0000;6879.1530
2323.0000;6906.2740
2324.0000;6938.3100
2325.0000;6955.6170
2326.0000;6952.4130
2327.0000;6945.6580
2328.0000;6936.8210
2329.0000;6925.3410
2330.0000;6914.6640
2331.0000;6912.1330
2332.0000;6922.1920
2333.0000;6928.9750
2334.0000;6917.8070
2335.0000;6902.2000
2336.0000;6891.0360
2337.0000;6893.6940
2338.0000;6921.2890
2339.0000;6957.4880
2340.0000;6970.7670
2341.0000;6957.6460
2342.0000;6946.1330
2343.0000;6941.3810
2344.0000;6945.3830
2345.0000;6959.3710
2346.0000;6970.1400
2347.0000;6970.0410
2348.0000;6962.9580
2349.0000;6953.5980
2350.0000;6943.4000
2351.0000;6936.2150
2352.0000;6932.6160
2353.0000;6926.8220
2354.0000;6923.5780
2355.0000;6922.5720
2356.0000;6927.1700
2357.0000;6941.4920
2358.0000;6961.4900
2359.0000;6973.4700
2360.0000;6970.4030
2361.0000;6950.0640
2362.0000;6913.4760
2363.0000;6898.2140
2364.0000;6933.6780
2365.0000;6974.8670
2366.0000;6975.1870
2367.0000;6955.4530
2368.0000;6942.6370
2369.0000;6934.8990
2370.0000;6932.1690
2371.0000;6938.7950
2372.0000;6956.4780
2373.0000;6977.8500
2374.0000;6981.1210
2375.0000;6961.3500
2376.0000;6943.2570
2377.0000;6938.0200
2378.0000;6938.5930
2379.0000;6942.5330
2380.0000;6946.2960
2381.0000;6945.1610
2382.0000;6938.3210
2383.0000;6921.2360
2384.0000;6909.5230
2385.0000;6922.5440
2386.0000;6946.8160
2387.0000;6951.3490
2388.0000;6938.9410
2389.0000;6931.4930
2390.0000;6930.0650
2391.0000;6925.8770
2392.0000;6919.2040
2393.0000;6913.5400
2394.0000;6911.4400
2395.0000;6924.9020
2396.0000;6960.3360
2397.0000;6978.0240
2398.0000;6945.1890
2399.0000;6902.4550
2400.0000;6894.2020
2401.0000;6900.9160
2402.0000;6890.5370
2403.0000;6880.0360
2404.0000;6881.4880
2405.0000;6896.5490
2406.0000;6922.5140
2407.0000;6950.2390
2408.0000;6959.0150
2409.0000;6944.0060
2410.0000;6928.1790
2411.0000;6920.6590
2412.0000;6921.2410
2413.0000;6931.2370
2414.0000;6936.5340
2415.0000;6925.3990
2416.0000;6913.0090
2417.0000;6909.8420
2418.0000;6916.8000
2419.0000;6931.1690
2420.0000;6950.5830
2421.0000;6972.7170
2422.0000;6985.4570
2423.0000;6982.9630
2424.0000;6965.3070
2425.0000;6947.3540
2426.0000;6936.5450
2427.0000;6944.8910
2428.0000;6970.8740
2429.0000;6977.2820
2430.0000;6953.3870
2431.0000;6933.5080
2432.0000;6936.0540
2433.0000;6939.2030
2434.0000;6929.4050
2435.0000;6924.9020
2436.0000;6938.3510
2437.0000;6953.5620
2438.0000;6951.8690
2439.0000;6942.4190
2440.0000;6941.3770
2441.0000;6942.3100
2442.0000;6936.8820
2443.0000;6927.7120
2444.0000;6920.1720
2445.0000;6915.4720
2446.0000;6910.2820
2447.0000;6905.4100
2448.0000;6897.2940
2449.0000;6888.0540
2450.0000;6886.9090
2451.0000;6897.4480
2452.0000;6905.1220
2453.0000;6901.6170
2454.0000;6895.2990
2455.0000;6891.5530
2456.0000;6889.8830
2457.0000;6890.8640
2458.0000;6892.4000
2459.0000;6890.1660
2460.0000;6886.8240
2461.0000;6885.2340
2462.0000;6884.8760
2463.0000;6884.1460
2464.0000;6882.9870
2465.0000;6881.2590
2466.0000;6877.5140
2467.0000;6868.1270
2468.0000;6854.2390
2469.0000;6833.2460
2470.0000;6813.1600
2471.0000;6820.3660
2472.0000;6861.1310
2473.0000;6891.2240
2474.0000;6887.2540
2475.0000;6873.7780
2476.0000;6865.6330
2477.0000;6867.4460
2478.0000;6889.8890
2479.0000;6903.4170
2480.0000;6875.9170
2481.0000;6848.1620
2482.0000;6875.1900
2483.0000;6916.4980
2484.0000;6914.5830
2485.0000;6885.0950
2486.0000;6866.8310
2487.0000;6856.8290
2488.0000;6841.4550
2489.0000;6829.0630
2490.0000;6826.2290
2491.0000;6835.9280
2492.0000;6850.9130
2493.0000;6865.6530
2494.0000;6868.8180
2495.0000;6856.6390
2496.0000;6847.4900
2497.0000;6849.6000
2498.0000;6854.0560
2499.0000;6857.1150
2500.0000;6852.6030
2501.0000;6835.0500
2502.0000;6823.9300
2503.0000;6835.4630
2504.0000;6851.4730
2505.0000;6850.8210
2506.0000;6845.4510
2507.0000;6847.8440
2508.0000;6855.7160
2509.0000;6869.5910
2510.0000;6883.1220
2511.0000;6893.3980
2512.0000;6892.8070
2513.0000;6877.3150
2514.0000;6853.7680
2515.0000;6842.5530
2516.0000;6849.5420
2517.0000;6867.6950
2518.0000;6889.0360
2519.0000;6886.3010
2520.0000;6855.6510
2521.0000;6837.6570
2522.0000;6847.5110
2523.0000;6856.3410
2524.0000;6853.3130
2525.0000;6855.0650
2526.0000;6868.0390
2527.0000;6868.9240
2528.0000;6842.9070
2529.0000;6817.9690
2530.0000;6815.9830
2531.0000;6819.1850
2532.0000;6807.1210
2533.0000;6796.3880
2534.0000;6792.9580
2535.0000;6804.0040
2536.0000;6838.3130
2537.0000;6867.5400
2538.0000;6851.9970
2539.0000;6809.0330
2540.0000;6781.3950
2541.0000;6775.3360
2542.0000;6786.9460
2543.0000;6806.7190
2544.0000;6795.0710
2545.0000;6760.8180
2546.0000;6748.4290
2547.0000;6762.5250
2548.0000;6769.6480
2549.0000;6765.8580
2550.0000;6764.7270
2551.0000;6769.2650
2552.0000;6780.9350
2553.0000;6797.7940
2554.0000;6798.4790
2555.0000;6774.8630
2556.0000;6762.1110
2557.0000;6779.2220
2558.0000;6787.2760
2559.0000;6763.3130
2560.0000;6745.5530
2561.0000;6761.2410
2562.0000;6778.6760
2563.0000;6771.5530
2564.0000;6752.4540
2565.0000;6729.7340
2566.0000;6713.2900
2567.0000;6709.7080
2568.0000;6718.2110
2569.0000;6727.0200
2570.0000;6731.7660
2571.0000;6716.1910
2572.0000;6702.0240
2573.0000;6725.8860
2574.0000;6766.3540
2575.0000;6778.2340
2576.0000;6766.1730
2577.0000;6760.8070
2578.0000;6759.9050
2579.0000;6759.7310
2580.0000;6759.4200
2581.0000;6753.4030
2582.0000;6745.4330
2583.0000;6751.1650
2584.0000;6765.8720
2585.0000;6757.2620
2586.0000;6724.6920
2587.0000;6710.4720
2588.0000;6725.9920
2589.0000;6744.8000
2590.0000;6755.2270
2591.0000;6744.1530
2592.0000;6707.8390
2593.0000;6688.1080
2594.0000;6705.5270
2595.0000;6723.4580
2596.0000;6722.4310
2597.0000;6718.9390
2598.0000;6719.7220
2599.0000;6721.4050
2600.0000;6723.0120
2601.0000;6729.9230
2602.0000;6746.3410
2603.0000;6758.2710
2604.0000;6755.4540
2605.0000;6745.7080
2606.0000;6740.1030
2607.0000;6736.5670
2608.0000;6735.0660
2609.0000;6734.7080
2610.0000;6729.0030
2611.0000;6727.9020
2612.0000;6744.0470
2613.0000;6758.8590
2614.0000;6747.7490
2615.0000;6723.3580
2616.0000;6706.8750
2617.0000;6700.8910
2618.0000;6703.0270
2619.0000;6711.4590
2620.0000;6709.1180
2621.0000;6705.4310
2622.0000;6722.4650
2623.0000;6744.5270
2624.0000;6741.5620
2625.0000;6717.6670
2626.0000;6697.2440
2627.0000;6687.7660
2628.0000;6695.0280
2629.0000;6713.6640
2630.0000;6714.6370
2631.0000;6699.1430
2632.0000;6689.1930
2633.0000;6691.3630
2634.0000;6710.3750
2635.0000;6738.1390
2636.0000;6739.6740
2637.0000;6713.1050
2638.0000;6705.6680
2639.0000;6723.4990
2640.0000;6727.8930
2641.0000;6713.2580
2642.0000;6712.5910
2643.0000;6731.0250
2644.0000;6731.4530
2645.0000;6707.4320
2646.0000;6702.0440
2647.0000;6727.6970
2648.0000;6742.5320
2649.0000;6730.2050
2650.0000;6712.7420
2651.0000;6699.6110
2652.0000;6692.3950
2653.0000;6693.3450
2654.0000;6685.7210
2655.0000;6661.9960
2656.0000;6647.6920
2657.0000;6654.5360
2658.0000;6664.5460
2659.0000;6665.5400
2660.0000;6671.2200
2661.0000;6686.7820
2662.0000;6690.5640
2663.0000;6669.7890
2664.0000;6654.3170
2665.0000;6666.8100
2666.0000;6678.5410
2667.0000;6670.7960
2668.0000;6658.3570
2669.0000;6649.8010
2670.0000;6647.9140
2671.0000;6655.9850
2672.0000;6659.7000
2673.0000;6644.9880
2674.0000;6634.5910
2675.0000;6648.5900
2676.0000;6661.0420
2677.0000;6651.5530
2678.0000;6631.0150
2679.0000;6608.8830
2680.0000;6595.5030
2681.0000;6600.3210
2682.0000;6613.9160
2683.0000;6622.7060
2684.0000;6622.8960
2685.0000;6609.5680
2686.0000;6593.9740
2687.0000;6591.6110
2688.0000;6592.9560
2689.0000;6585.0810
2690.0000;6578.9200
2691.0000;6583.5870
2692.0000;6587.2000
2693.0000;6572.7140
2694.0000;6562.0360
2695.0000;6577.0950
2696.0000;6597.5790
2697.0000;6595.6090
2698.0000;6592.1480
2699.0000;6616.5020
2700.0000;6635.0940
2701.0000;6616.5120
2702.0000;6587.0830
2703.0000;6585.7910
2704.0000;6592.4290
2705.0000;6576.6020
2706.0000;6566.5380
2707.0000;6591.0780
2708.0000;6616.3230
2709.0000;6599.7360
2710.0000;6571.0550
2711.0000;6567.3720
2712.0000;6579.4560
2713.0000;6596.1500
2714.0000;6608.9440
2715.0000;6604.7510
2716.0000;6591.8050
2717.0000;6585.1370
2718.0000;6585.0360
2719.0000;6592.0060
2720.0000;6601.9940
2721.0000;6608.5420
2722.0000;6607.9640
2723.0000;6600.8100
2724.0000;6587.0300
2725.0000;6567.5570
2726.0000;6556.1770
2727.0000;6563.2500
2728.0000;6576.0300
2729.0000;6568.4860
2730.0000;6565.8940
2731.0000;6598.8780
2732.0000;6626.5520
2733.0000;6604.4200
2734.0000;6571.4080
2735.0000;6577.1370
2736.0000;6588.7950
2737.0000;6569.0150
2738.0000;6550.9060
2739.0000;6563.6260
2740.0000;6578.0670
2741.0000;6561.0580
2742.0000;6540.9620
2743.0000;6542.7550
2744.0000;6551.4570
2745.0000;6550.5500
2746.0000;6549.6540
2747.0000;6554.2980
2748.0000;6559.9700
2749.0000;6563.8070
2750.0000;6565.5950
2751.0000;6566.2060
2752.0000;6563.6880
2753.0000;6556.3490
2754.0000;6558.6640
2755.0000;6583.6520
2756.0000;6593.8280
2757.0000;6558.9900
2758.0000;6530.4110
2759.0000;6548.9220
2760.0000;6569.2650
2761.0000;6559.0900
2762.0000;6547.0310
2763.0000;6550.1200
2764.0000;6545.3450
2765.0000;6521.5820
2766.0000;6509.2880
2767.0000;6525.8960
2768.0000;6532.5480
2769.0000;6508.0540
2770.0000;6485.0610
2771.0000;6481.5810
2772.0000;6476.5080
2773.0000;6462.9560
2774.0000;6469.8940
2775.0000;6505.8760
2776.0000;6528.3290
2777.0000;6518.4340
2778.0000;6502.5370
2779.0000;6490.8160
2780.0000;6475.4140
2781.0000;6460.5670
2782.0000;6464.4230
2783.0000;6489.0490
2784.0000;6493.6420
2785.0000;6470.2540
2786.0000;6463.1360
2787.0000;6478.9070
2788.0000;6480.0510
2789.0000;6463.7900
2790.0000;6466.7260
2791.0000;6488.0000
2792.0000;6490.7850
2793.0000;6473.5560
2794.0000;6471.4200
2795.0000;6482.2980
2796.0000;6474.5120
2797.0000;6456.8650
2798.0000;6472.2520
2799.0000;6508.4220
2800.0000;6513.2540
2801.0000;6492.8140
2802.0000;6488.0730
2803.0000;6494.9290
2804.0000;6494.9870
2805.0000;6491.9950
2806.0000;6491.8910
2807.0000;6497.2720
2808.0000;6514.9180
2809.0000;6528.9980
2810.0000;6513.6280
2811.0000;6492.6500
2812.0000;6507.6570
2813.0000;6535.6130
2814.0000;6542.1960
2815.0000;6534.0840
2816.0000;6524.9320
2817.0000;6514.4070
2818.0000;6507.9500
2819.0000;6504.2350
2820.0000;6497.5410
2821.0000;6497.0040
2822.0000;6507.3130
2823.0000;6516.6260
2824.0000;6513.9730
2825.0000;6510.7680
2826.0000;6515.0240
2827.0000;6523.2230
2828.0000;6533.8830
2829.0000;6527.5300
2830.0000;6495.5430
2831.0000;6479.9190
2832.0000;6502.0300
2833.0000;6527.0680
2834.0000;6538.6150
2835.0000;6544.3220
2836.0000;6543.6230
2837.0000;6540.8090
2838.0000;6537.6560
2839.0000;6533.3990
2840.0000;6527.5910
2841.0000;6514.3420
2842.0000;6496.5760
2843.0000;6476.2880
2844.0000;6464.6560
2845.0000;6477.2480
2846.0000;6508.1580
2847.0000;6526.6960
2848.0000;6527.3130
2849.0000;6521.4610
2850.0000;6509.0690
2851.0000;6499.5910
2852.0000;6493.2420
2853.0000;6481.3200
2854.0000;6476.6440
2855.0000;6493.2450
2856.0000;6511.8000
2857.0000;6501.8080
2858.0000;6484.1600
2859.0000;6486.4270
2860.0000;6492.5670
2861.0000;6489.3260
2862.0000;6477.5100
2863.0000;6455.3300
2864.0000;6445.5830
2865.0000;6465.1570
2866.0000;6477.2930
2867.0000;6457.6430
2868.0000;6441.7700
2869.0000;6447.6920
2870.0000;6454.8560
2871.0000;6454.4330
2872.0000;6443.6550
2873.0000;6424.2840
2874.0000;6417.5930
2875.0000;6429.0220
2876.0000;6437.5890
2877.0000;6442.4810
2878.0000;6462.9840
2879.0000;6488.4000
2880.0000;6489.8140
2881.0000;6470.6010
2882.0000;6469.8950
2883.0000;6479.0980
2884.0000;6476.0130
2885.0000;6463.4910
2886.0000;6445.8220
2887.0000;6435.6040
2888.0000;6447.2520
2889.0000;6467.8700
2890.0000;6477.9460
2891.0000;6474.8140
2892.0000;6457.3300
2893.0000;6445.3500
2894.0000;6458.4080
2895.0000;6472.2110
2896.0000;6468.4290
2897.0000;6462.8280
2898.0000;6463.0840
2899.0000;6461.4010
2900.0000;6455.9030
2901.0000;6449.2590
2902.0000;6444.5650
2903.0000;6449.8990
2904.0000;6464.2530
2905.0000;6468.1640
2906.0000;6462.9010
2907.0000;6474.9570
2908.0000;6499.0350
2909.0000;6512.0320
2910.0000;6511.0340
2911.0000;6510.7320
2912.0000;6506.4710
2913.0000;6495.6350
2914.0000;6486.0870
2915.0000;6492.9530
2916.0000;6494.1950
2917.0000;6459.9890
2918.0000;6423.8560
2919.0000;6414.1960
2920.0000;6425.3510
2921.0000;6447.3980
2922.0000;6462.1240
2923.0000;6453.2730
2924.0000;6437.6890
2925.0000;6427.2400
2926.0000;6433.7500
2927.0000;6458.4650
2928.0000;6468.3150
2929.0000;6456.0700
2930.0000;6452.1350
2931.0000;6455.9990
2932.0000;6443.2930
2933.0000;6421.9120
2934.0000;6416.0180
2935.0000;6422.7410
2936.0000;6421.7380
2937.0000;6415.6860
2938.0000;6404.7330
2939.0000;6398.6720
2940.0000;6410.2110
2941.0000;6418.2040
2942.0000;6398.2880
2943.0000;6379.0620
2944.0000;6381.6960
2945.0000;6400.1140
2946.0000;6427.7580
2947.0000;6438.9780
2948.0000;6420.9910
2949.0000;6413.9070
2950.0000;6428.4190
2951.0000;6435.5640
2952.0000;6430.8020
2953.0000;6423.7730
2954.0000;6421.0960
2955.0000;6440.0050
2956.0000;6463.0340
2957.0000;6451.6050
2958.0000;6418.2280
2959.0000;6400.8540
2960.0000;6393.7280
2961.0000;6385.1530
2962.0000;6376.1720
2963.0000;6357.3290
2964.0000;6354.3890
2965.0000;6383.3850
2966.0000;6393.6340
2967.0000;6356.5260
2968.0000;6327.4810
2969.0000;6332.4210
2970.0000;6345.0060
2971.0000;6357.5150
2972.0000;6368.5080
2973.0000;6372.0070
2974.0000;6359.6700
2975.0000;6343.0500
2976.0000;6360.3230
2977.0000;6392.8520
2978.0000;6398.9610
2979.0000;6387.9460
2980.0000;6386.6780
2981.0000;6383.5220
2982.0000;6372.8450
2983.0000;6363.5000
2984.0000;6360.9900
2985.0000;6361.3220
2986.0000;6361.6280
2987.0000;6381.5000
2988.0000;6420.5960
2989.0000;6425.9390
2990.0000;6390.1460
2991.0000;6379.4110
2992.0000;6398.5320
2993.0000;6412.9350
2994.0000;6419.4450
2995.0000;6424.3880
2996.0000;6422.0430
2997.0000;6410.2070
2998.0000;6400.0130
2999.0000;6406.6520
3000.0000;6415.0350
3001.0000;6408.4310
3002.0000;6405.7070
3003.0000;6417.3310
3004.0000;6431.0110
3005.0000;6438.4250
3006.0000;6427.5540
3007.0000;6398.5900
3008.0000;6373.7520
3009.0000;6364.4630
3010.0000;6367.9360
3011.0000;6383.6450
3012.0000;6397.8430
3013.0000;6403.4550
3014.0000;6394.6980
3015.0000;6379.8880
3016.0000;6373.8290
3017.0000;6378.3120
3018.0000;6393.8140
3019.0000;6401.5930
3020.0000;6389.0290
3021.0000;6382.5510
3022.0000;6391.5220
3023.0000;6385.9390
3024.0000;6363.9510
3025.0000;6351.0640
3026.0000;6349.0030
3027.0000;6336.5960
3028.0000;6321.6070
3029.0000;6313.0160
3030.0000;6315.6880
3031.0000;6326.8250
3032.0000;6340.7750
3033.0000;6348.6180
3034.0000;6345.0730
3035.0000;6329.1250
3036.0000;6325.2870
3037.0000;6344.1770
3038.0000;6350.9320
3039.0000;6338.3380
3040.0000;6336.0000
3041.0000;6345.4740
3042.0000;6352.9440
3043.0000;6351.9770
3044.0000;6334.1000
3045.0000;6313.1540
3046.0000;6313.1520
3047.0000;6319.0420
3048.0000;6309.6250
3049.0000;6306.9420
3050.0000;6322.5050
3051.0000;6325.3520
3052.0000;6303.8580
3053.0000;6288.1850
3054.0000;6287.7610
3055.0000;6291.3340
3056.0000;6298.2370
3057.0000;6307.9400
3058.0000;6313.2750
3059.0000;6307.0100
3060.0000;6291.6670
3061.0000;6276.0830
3062.0000;6264.1830
3063.0000;6258.1060
3064.0000;6268.6880
3065.0000;6296.2940
3066.0000;6307.3030
3067.0000;6289.3190
3068.0000;6287.9180
3069.0000;6305.4170
3070.0000;6308.8290
3071.0000;6294.5260
3072.0000;6267.9640
3073.0000;6242.6000
3074.0000;6230.1260
3075.0000;6241.0540
3076.0000;6273.7680
3077.0000;6300.4390
3078.0000;6297.6930
3079.0000;6298.9500
3080.0000;6317.2000
3081.0000;6333.1410
3082.0000;6337.3200
3083.0000;6321.2350
3084.0000;6292.9480
3085.0000;6280.8740
3086.0000;6285.6630
3087.0000;6290.3750
3088.0000;6299.3810
3089.0000;6309.7520
3090.0000;6317.3200
3091.0000;6319.2100
3092.0000;6321.8400
3093.0000;6328.1710
3094.0000;6336.5360
3095.0000;6344.2290
3096.0000;6350.5090
3097.0000;6350.4820
3098.0000;6341.6550
3099.0000;6327.2490
3100.0000;6312.5460
3101.0000;6309.5980
3102.0000;6326.6120
3103.0000;6340.1940
3104.0000;6331.5250
3105.0000;6328.4070
3106.0000;6340.3280
3107.0000;6349.4340
3108.0000;6349.7990
3109.0000;6345.7080
3110.0000;6335.8060
3111.0000;6319.7050
3112.0000;6305.7210
3113.0000;6300.9860
3114.0000;6302.8240
3115.0000;6303.7590
3116.0000;6298.7370
3117.0000;6285.2150
3118.0000;6280.1440
3119.0000;6286.8430
3120.0000;6281.9720
3121.0000;6269.0370
3122.0000;6268.5510
3123.0000;6281.5650
3124.0000;6304.2370
3125.0000;6321.1340
3126.0000;6317.2720
3127.0000;6297.7130
3128.0000;6272.3500
3129.0000;6253.8150
3130.0000;6252.9230
3131.0000;6261.9650
3132.0000;6276.7080
3133.0000;6285.7040
3134.0000;6282.0720
3135.0000;6258.9860
3136.0000;6241.0440
3137.0000;6263.8670
3138.0000;6277.4330
3139.0000;6243.1080
3140.0000;6219.3960
3141.0000;6232.2170
3142.0000;6231.6210
3143.0000;6213.7830
3144.0000;6210.3030
3145.0000;6220.4900
3146.0000;6227.6430
3147.0000;6229.5440
3148.0000;6223.3240
3149.0000;6218.8570
3150.0000;6225.8480
3151.0000;6228.1260
3152.0000;6219.3420
3153.0000;6214.7410
3154.0000;6217.9010
3155.0000;6221.8090
3156.0000;6225.7630
3157.0000;6232.6900
3158.0000;6232.1740
3159.0000;6211.3890
3160.0000;6200.3660
3161.0000;6222.9440
3162.0000;6255.6290
3163.0000;6282.0560
3164.0000;6289.7790
3165.0000;6274.4540
3166.0000;6256.5440
3167.0000;6244.0270
3168.0000;6245.2050
3169.0000;6252.6940
3170.0000;6249.3700
3171.0000;6246.7140
3172.0000;6251.0200
3173.0000;6258.1910
3174.0000;6264.1310
3175.0000;6255.8320
3176.0000;6236.4650
3177.0000;6227.9590
3178.0000;6229.1870
3179.0000;6224.0880
3180.0000;6223.7530
3181.0000;6233.7280
3182.0000;6246.1960
3183.0000;6253.5340
3184.0000;6240.5420
3185.0000;6211.5550
3186.0000;6210.0480
3187.0000;6234.2280
3188.0000;6248.3840
3189.0000;6249.1760
3190.0000;6235.6920
3191.0000;6226.6260
3192.0000;6240.1700
3193.0000;6258.2850
3194.0000;6270.0880
3195.0000;6276.1220
3196.0000;6274.4790
3197.0000;6273.6200
3198.0000;6271.7150
3199.0000;6266.4560
3200.0000;6263.0550
3201.0000;6268.0620
3202.0000;6259.9450
3203.0000;6230.3860
3204.0000;6213.9820
3205.0000;6221.1110
3206.0000;6225.7110
3207.0000;6227.2610
3208.0000;6232.0300
3209.0000;6229.8660
3210.0000;6210.6100
3211.0000;6190.8610
3212.0000;6185.2970
3213.0000;6188.6960
3214.0000;6197.7370
3215.0000;6201.2820
3216.0000;6197.6360
3217.0000;6193.0130
3218.0000;6191.9660
3219.0000;6200.6410
3220.0000;6212.3240
3221.0000;6220.2580
3222.0000;6213.5940
3223.0000;6193.3230
3224.0000;6198.2110
3225.0000;6222.2550
3226.0000;6215.2800
3227.0000;6193.9980
3228.0000;6195.0430
3229.0000;6206.6790
3230.0000;6218.0180
3231.0000;6221.0210
3232.0000;6210.1020
3233.0000;6184.7320
3234.0000;6159.9640
3235.0000;6174.8480
3236.0000;6207.5100
3237.0000;6204.4940
3238.0000;6180.9130
3239.0000;6154.6660
3240.0000;6146.2080
3241.0000;6165.1170
3242.0000;6172.4020
3243.0000;6161.0540
3244.0000;6149.0480
3245.0000;6139.1570
3246.0000;6130.0900
3247.0000;6135.6300
3248.0000;6160.5080
3249.0000;6191.1530
3250.0000;6212.8300
3251.0000;6217.3390
3252.0000;6203.3830
3253.0000;6197.6520
3254.0000;6194.6790
3255.0000;6183.5030
3256.0000;6174.8790
3257.0000;6175.0840
3258.0000;6181.5240
3259.0000;6189.9440
3260.0000;6187.1740
3261.0000;6173.3600
3262.0000;6160.9530
3263.0000;6152.4720
3264.0000;6144.7070
3265.0000;6153.5280
3266.0000;6182.3880
3267.0000;6195.0470
3268.0000;6182.5270
3269.0000;6183.6950
3270.0000;6191.4110
3271.0000;6175.9090
3272.0000;6162.6240
3273.0000;6179.9810
3274.0000;6198.3630
3275.0000;6199.6750
3276.0000;6206.0210
3277.0000;6212.3470
3278.0000;6188.4040
3279.0000;6154.6000
3280.0000;6151.8470
3281.0000;6166.8300
3282.0000;6179.4750
3283.0000;6179.4580
3284.0000;6164.5470
3285.0000;6166.4830
3286.0000;6185.4720
3287.0000;6200.6330
3288.0000;6209.3290
3289.0000;6215.7760
3290.0000;6206.0920
3291.0000;6179.4520
3292.0000;6167.3840
3293.0000;6173.5350
3294.0000;6145.8770
3295.0000;6111.0940
3296.0000;6121.8820
3297.0000;6144.0360
3298.0000;6135.1320
3299.0000;6132.9400
3300.0000;6146.7590
3301.0000;6139.3470
3302.0000;6115.5530
3303.0000;6109.8000
3304.0000;6115.3760
3305.0000;6114.2540
3306.0000;6115.5840
3307.0000;6121.6000
3308.0000;6126.4840
3309.0000;6125.4190
3310.0000;6114.8780
3311.0000;6094.0000
3312.0000;6057.1260
3313.0000;6041.4700
3314.0000;6070.0760
3315.0000;6102.3740
3316.0000;6116.2270
3317.0000;6121.2570
3318.0000;6115.5340
3319.0000;6109.4830
3320.0000;6103.3100
3321.0000;6099.6900
3322.0000;6105.1730
3323.0000;6118.9900
3324.0000;6116.8780
3325.0000;6097.9720
3326.0000;6082.0510
3327.0000;6077.4700
3328.0000;6090.0080
3329.0000;6101.4920
3330.0000;6098.0520
3331.0000;6111.7880
3332.0000;6138.8200
3333.0000;6143.6200
3334.0000;6127.5060
3335.0000;6113.0980
3336.0000;6103.1520
3337.0000;6102.5650
3338.0000;6111.1730
3339.0000;6123.4800
3340.0000;6123.0000
3341.0000;6111.4070
3342.0000;6098.7020
3343.0000;6098.7680
3344.0000;6121.0900
3345.0000;6144.8540
3346.0000;6152.8490
3347.0000;6131.9490
3348.0000;6093.0480
3349.0000;6071.4110
3350.0000;6072.7530
3351.0000;6091.1040
3352.0000;6110.7850
3353.0000;6119.7480
3354.0000;6136.6690
3355.0000;6149.1760
3356.0000;6132.4700
3357.0000;6115.7970
3358.0000;6136.0080
3359.0000;6158.3400
3360.0000;6164.6440
3361.0000;6167.8490
3362.0000;6167.8140
3363.0000;6168.8770
3364.0000;6171.7010
3365.0000;6179.5250
3366.0000;6175.0100
3367.0000;6154.6780
3368.0000;6143.0510
3369.0000;6146.0000
3370.0000;6153.6430
3371.0000;6161.9630
3372.0000;6162.0140
3373.0000;6167.4910
3374.0000;6179.8300
3375.0000;6166.9440
3376.0000;6140.2920
3377.0000;6148.9500
3378.0000;6169.2550
3379.0000;6170.1550
3380.0000;6159.3930
3381.0000;6143.7320
3382.0000;6139.6820
3383.0000;6148.8830
3384.0000;6158.6330
3385.0000;6159.0880
3386.0000;6140.0960
3387.0000;6135.7540
3388.0000;6156.7230
3389.0000;6168.4940
3390.0000;6166.0360
3391.0000;6156.1460
3392.0000;6147.6220
3393.0000;6151.4650
3394.0000;6158.6330
3395.0000;6165.1640
3396.0000;6175.1350
3397.0000;6178.9460
3398.0000;6164.9070
3399.0000;6144.6750
3400.0000;6133.3080
3401.0000;6137.8420
3402.0000;6153.0920
3403.0000;6138.3860
3404.0000;6120.6860
3405.0000;6152.7020
3406.0000;6178.3370
3407.0000;6159.8690
3408.0000;6143.1010
3409.0000;6140.0070
3410.0000;6147.7190
3411.0000;6156.0290
3412.0000;6148.4230
3413.0000;6133.3700
3414.0000;6120.6090
3415.0000;6127.2580
3416.0000;6147.9950
3417.0000;6152.0980
3418.0000;6145.6180
3419.0000;6139.8010
3420.0000;6117.9540
3421.0000;6090.7860
3422.0000;6126.0230
3423.0000;6185.6570
3424.0000;6168.6010
3425.0000;6141.8350
3426.0000;6163.5820
3427.0000;6182.1850
3428.0000;6181.1970
3429.0000;6163.9580
3430.0000;6143.4560
3431.0000;6140.1430
3432.0000;6158.3650
3433.0000;6191.4440
3434.0000;6203.4800
3435.0000;6192.3860
3436.0000;6197.7760
3437.0000;6197.6940
3438.0000;6176.1760
3439.0000;6156.2950
3440.0000;6148.6890
3441.0000;6135.5100
3442.0000;6129.9190
3443.0000;6147.5520
3444.0000;6165.7240
3445.0000;6164.4290
3446.0000;6162.3420
3447.0000;6164.2450
3448.0000;6171.5040
3449.0000;6181.7390
3450.0000;6191.9930
3451.0000;6195.1950
3452.0000;6187.6700
3453.0000;6174.3850
3454.0000;6154.0000
3455.0000;6115.9050
3456.0000;6092.5580
3457.0000;6102.5390
3458.0000;6144.6700
3459.0000;6194.2110
3460.0000;6186.5020
3461.0000;6149.7420
3462.0000;6143.5550
3463.0000;6155.8020
3464.0000;6179.2230
3465.0000;6198.4790
3466.0000;6200.0000
3467.0000;6180.0650
3468.0000;6156.4220
3469.0000;6149.7240
3470.0000;6158.8130
3471.0000;6177.9390
3472.0000;6185.8890
3473.0000;6183.8920
3474.0000;6180.7960
3475.0000;6182.1980
3476.0000;6188.4650
3477.0000;6175.8610
3478.0000;6159.6800
3479.0000;6173.0480
3480.0000;6188.1590
3481.0000;6184.0210
3482.0000;6171.4520
3483.0000;6157.8060
3484.0000;6151.0860
3485.0000;6158.0970
3486.0000;6178.1740
3487.0000;6192.6010
3488.0000;6191.3260
3489.0000;6184.5980
3490.0000;6175.2370
3491.0000;6171.1260
3492.0000;6163.7540
3493.0000;6152.6030
3494.0000;6165.4090
3495.0000;6185.8000
3496.0000;6162.9830
3497.0000;6143.5150
3498.0000;6162.2450
3499.0000;6177.6720
3500.0000;6179.3070
3501.0000;6182.9000
3502.0000;6171.7310
3503.0000;6136.2800
3504.0000;6129.1970
3505.0000;6162.1170
3506.0000;6165.4100
3507.0000;6152.4220
3508.0000;6159.1680
3509.0000;6167.2590
3510.0000;6168.1760
3511.0000;6166.9990
3512.0000;6160.7740
3513.0000;6143.2950
3514.0000;6135.1080
3515.0000;6148.6460
3516.0000;6163.6760
3517.0000;6169.6900
3518.0000;6161.6710
3519.0000;6147.5990
3520.0000;6141.6200
3521.0000;6142.3790
3522.0000;6153.6910
3523.0000;6184.9360
3524.0000;6210.2270
3525.0000;6200.6650
3526.0000;6198.1910
3527.0000;6214.0400
3528.0000;6216.2890
3529.0000;6199.2650
3530.0000;6162.7970
3531.0000;6153.4000
3532.0000;6187.1920
3533.0000;6203.7310
3534.0000;6202.3050
3535.0000;6212.6570
3536.0000;6204.8760
3537.0000;6171.0960
3538.0000;6157.6970
3539.0000;6167.8000
3540.0000;6169.5590
3541.0000;6169.7070
3542.0000;6169.4630
3543.0000;6181.4050
3544.0000;6198.1850
3545.0000;6196.6470
3546.0000;6181.7290
3547.0000;6166.0030
3548.0000;6163.3630
3549.0000;6172.0040
3550.0000;6162.3040
3551.0000;6143.2140
3552.0000;6126.3010
3553.0000;6115.5520
3554.0000;6114.9260
3555.0000;6120.0200
3556.0000;6124.0810
3557.0000;6115.6740
3558.0000;6118.4290
3559.0000;6135.6800
3560.0000;6142.8500
3561.0000;6141.4440
3562.0000;6140.3900
3563.0000;6142.9640
3564.0000;6149.4790
3565.0000;6152.0720
3566.0000;6148.6880
3567.0000;6141.7650
3568.0000;6126.2980
3569.0000;6110.8640
3570.0000;6136.9400
3571.0000;6174.6820
3572.0000;6166.7640
3573.0000;6150.3080
3574.0000;6147.1900
3575.0000;6152.8060
3576.0000;6163.4380
3577.0000;6169.8240
3578.0000;6166.5570
3579.0000;6154.5320
3580.0000;6150.9670
3581.0000;6154.2320
3582.0000;6153.6380
3583.0000;6155.3400
3584.0000;6156.8760
3585.0000;6132.5370
3586.0000;6096.5850
3587.0000;6073.9800
3588.0000;6094.4440
3589.0000;6153.1060
3590.0000;6173.9740
3591.0000;6162.3860
3592.0000;6166.3750
3593.0000;6169.5990
3594.0000;6169.0790
3595.0000;6166.0590
3596.0000;6163.6780
3597.0000;6166.1390
3598.0000;6175.4750
3599.0000;6188.7440
3600.0000;6195.8360
3601.0000;6197.3900
3602.0000;6202.3430
3603.0000;6207.2070
3604.0000;6211.2100
3605.0000;6219.0440
3606.0000;6217.8840
3607.0000;6193.8690
3608.0000;6184.7630
3609.0000;6202.5570
3610.0000;6206.2130
3611.0000;6210.8250
3612.0000;6237.1650
3613.0000;6245.5780
3614.0000;6225.5810
3615.0000;6206.6820
3616.0000;6196.2500
3617.0000;6198.4240
3618.0000;6201.0320
3619.0000;6200.3770
3620.0000;6202.4880
3621.0000;6204.2380
3622.0000;6202.9350
3623.0000;6203.6240
3624.0000;6210.7510
3625.0000;6231.0630
3626.0000;6253.1250
3627.0000;6265.6540
3628.0000;6259.6700
3629.0000;6240.8000
3630.0000;6236.7210
3631.0000;6231.8740
3632.0000;6220.7910
3633.0000;6251.3290
3634.0000;6294.2710
3635.0000;6281.0330
3636.0000;6261.2080
3637.0000;6265.1470
3638.0000;6258.8410
3639.0000;6245.1200
3640.0000;6230.9070
3641.0000;6242.8780
3642.0000;6277.8170
3643.0000;6270.7750
3644.0000;6237.4130
3645.0000;6217.9970
3646.0000;6206.8040
3647.0000;6208.4920
3648.0000;6224.8600
3649.0000;6233.8610
3650.0000;6212.5140
3651.0000;6209.4690
3652.0000;6229.9770
3653.0000;6244.7780
3654.0000;6242.3350
3655.0000;6220.3820
3656.0000;6222.6500
3657.0000;6241.2520
3658.0000;6233.3070
3659.0000;6230.4120
3660.0000;6245.6970
3661.0000;6255.6960
3662.0000;6245.5630
3663.0000;6204.9410
3664.0000;6179.8120
3665.0000;6187.1590
3666.0000;6184.8720
3667.0000;6190.7760
3668.0000;6216.7170
3669.0000;6241.8110
3670.0000;6246.5940
3671.0000;6216.0690
3672.0000;6188.6770
3673.0000;6198.7050
3674.0000;6204.6080
3675.0000;6203.9590
3676.0000;6207.0460
3677.0000;6206.4970
3678.0000;6199.1760
3679.0000;6183.9190
3680.0000;6171.8440
3681.0000;6175.4390
3682.0000;6181.9990
3683.0000;6185.5960
3684.0000;6188.1650
3685.0000;6186.4960
3686.0000;6181.1360
3687.0000;6189.3170
3688.0000;6206.0470
3689.0000;6211.9600
3690.0000;6212.1540
3691.0000;6213.3390
3692.0000;6232.7150
3693.0000;6248.1750
3694.0000;6228.5000
3695.0000;6223.6000
3696.0000;6243.3870
3697.0000;6244.7140
3698.0000;6239.4440
3699.0000;6241.1990
3700.0000;6238.6610
3701.0000;6237.7840
3702.0000;6253.9610
3703.0000;6265.5270
3704.0000;6262.2550
3705.0000;6274.0380
3706.0000;6287.3830
3707.0000;6282.3940
3708.0000;6287.7040
3709.0000;6302.7090
3710.0000;6298.4940
3711.0000;6288.6960
3712.0000;6288.2330
3713.0000;6287.6590
3714.0000;6289.2700
3715.0000;6296.9440
3716.0000;6303.7240
3717.0000;6301.6760
3718.0000;6281.3730
3719.0000;6254.7710
3720.0000;6239.7910
3721.0000;6252.0150
3722.0000;6276.5070
3723.0000;6261.3270
3724.0000;6246.9410
3725.0000;6257.4920
3726.0000;6268.9830
3727.0000;6268.2110
3728.0000;6243.8010
3729.0000;6250.1860
3730.0000;6282.2180
3731.0000;6258.2030
3732.0000;6233.7120
3733.0000;6252.2230
3734.0000;6266.4500
3735.0000;6262.1640
3736.0000;6231.8440
3737.0000;6225.7550
3738.0000;6253.7820
3739.0000;6255.0310
3740.0000;6246.9690
3741.0000;6247.8200
3742.0000;6255.9880
3743.0000;6265.7670
3744.0000;6266.1620
3745.0000;6276.5420
3746.0000;6294.8170
3747.0000;6286.5070
3748.0000;6269.6490
3749.0000;6268.9240
3750.0000;6263.2500
3751.0000;6255.1330
3752.0000;6254.2110
3753.0000;6251.5410
3754.0000;6244.5530
3755.0000;6240.9130
3756.0000;6237.9400
3757.0000;6231.4600
3758.0000;6220.3290
3759.0000;6218.3920
3760.0000;6245.1470
3761.0000;6280.9450
3762.0000;6300.7370
3763.0000;6282.2530
3764.0000;6271.2280
3765.0000;6313.8230
3766.0000;6325.8980
3767.0000;6310.1310
3768.0000;6321.6980
3769.0000;6324.5940
3770.0000;6310.2150
3771.0000;6301.7890
3772.0000;6304.0790
3773.0000;6317.6000
3774.0000;6336.2190
3775.0000;6351.6830
3776.0000;6359.9850
3777.0000;6358.6540
3778.0000;6354.5840
3779.0000;6371.1910
3780.0000;6383.3050
3781.0000;6374.7240
3782.0000;6386.0790
3783.0000;6400.5220
3784.0000;6386.2430
3785.0000;6360.6570
3786.0000;6348.8400
3787.0000;6389.1740
3788.0000;6417.2510
3789.0000;6393.6450
3790.0000;6388.5770
3791.0000;6404.7390
3792.0000;6432.0370
3793.0000;6444.6710
3794.0000;6437.7330
3795.0000;6435.2470
3796.0000;6425.4230
3797.0000;6410.1150
3798.0000;6402.9030
3799.0000;6398.5420
3800.0000;6389.9360
3801.0000;6399.0760
3802.0000;6408.3910
3803.0000;6382.0230
3804.0000;6366.5340
3805.0000;6371.2830
3806.0000;6348.4160
3807.0000;6343.1530
3808.0000;6372.6100
3809.0000;6360.6830
3810.0000;6337.7930
3811.0000;6352.7530
3812.0000;6363.0570
3813.0000;6360.3370
3814.0000;6352.5070
3815.0000;6351.5390
3816.0000;6357.3950
3817.0000;6339.1270
3818.0000;6330.0630
3819.0000;6352.1960
3820.0000;6352.8560
3821.0000;6331.4820
3822.0000;6306.6580
3823.0000;6311.1320
3824.0000;6337.0690
3825.0000;6327.5640
3826.0000;6330.8800
3827.0000;6358.8270
3828.0000;6354.4760
3829.0000;6342.1100
3830.0000;6348.5850
3831.0000;6354.6430
3832.0000;6354.2530
3833.0000;6344.6190
3834.0000;6327.7740
3835.0000;6316.4890
3836.0000;6327.9630
3837.0000;6340.0260
3838.0000;6336.6580
3839.0000;6323.8320
3840.0000;6312.3510
3841.0000;6313.3750
3842.0000;6312.2310
3843.0000;6312.1460
3844.0000;6317.4620
3845.0000;6316.2730
3846.0000;6316.7720
3847.0000;6345.1620
3848.0000;6362.7170
3849.0000;6354.9170
3850.0000;6354.0940
3851.0000;6353.9350
3852.0000;6353.0330
3853.0000;6354.7290
3854.0000;6361.5930
3855.0000;6374.4400
3856.0000;6407.4120
3857.0000;6432.7920
3858.0000;6409.3390
3859.0000;6385.2390
3860.0000;6386.6000
3861.0000;6412.0840
3862.0000;6425.5790
3863.0000;6408.6780
3864.0000;6408.9400
3865.0000;6412.0070
3866.0000;6404.1370
3867.0000;6384.1800
3868.0000;6371.9420
3869.0000;6389.0000
3870.0000;6398.2560
3871.0000;6405.1700
3872.0000;6445.8790
3873.0000;6447.1050
3874.0000;6400.8370
3875.0000;6380.2130
3876.0000;6360.0630
3877.0000;6334.3710
3878.0000;6326.2560
3879.0000;6336.0890
3880.0000;6348.4940
3881.0000;6325.7210
3882.0000;6313.1610
3883.0000;6369.3560
3884.0000;6394.3910
3885.0000;6386.3540
3886.0000;6404.9110
3887.0000;6400.6790
3888.0000;6378.1010
3889.0000;6391.7600
3890.0000;6405.4670
3891.0000;6400.2520
3892.0000;6391.0970
3893.0000;6391.1180
3894.0000;6402.4210
3895.0000;6370.4270
3896.0000;6343.8580
3897.0000;6371.2230
3898.0000;6359.3440
3899.0000;6336.3680
3900.0000;6363.1420
3901.0000;6384.0290
3902.0000;6393.1640
3903.0000;6420.4520
3904.0000;6395.1770
3905.0000;6333.9660
3906.0000;6352.6990
3907.0000;6362.2160
3908.0000;6331.3660
3909.0000;6346.0290
3910.0000;6361.4700
3911.0000;6346.5640
3912.0000;6332.1060
3913.0000;6331.4110
3914.0000;6352.1110
3915.0000;6380.4250
3916.0000;6390.3310
3917.0000;6363.7650
3918.0000;6366.4930
3919.0000;6390.8960
3920.0000;6390.5450
3921.0000;6406.3650
3922.0000;6430.2660
3923.0000;6427.4530
3924.0000;6435.7320
3925.0000;6458.9090
3926.0000;6466.9920
3927.0000;6464.9850
3928.0000;6458.7250
3929.0000;6450.9510
3930.0000;6452.5830
3931.0000;6462.8120
3932.0000;6447.1510
3933.0000;6424.0920
3934.0000;6414.2320
3935.0000;6402.2050
3936.0000;6405.4060
3937.0000;6429.4980
3938.0000;6416.8210
3939.0000;6397.3630
3940.0000;6421.1390
3941.0000;6439.0620
3942.0000;6439.1370
3943.0000;6427.1030
3944.0000;6415.4350
3945.0000;6415.5180
3946.0000;6433.2560
3947.0000;6441.4090
3948.0000;6434.5790
3949.0000;6432.5400
3950.0000;6428.2120
3951.0000;6420.8750
3952.0000;6410.8470
3953.0000;6408.5530
3954.0000;6411.0940
3955.0000;6390.2480
3956.0000;6374.3800
3957.0000;6376.8040
3958.0000;6362.7720
3959.0000;6370.8990
3960.0000;6409.7290
3961.0000;6412.9090
3962.0000;6393.4490
3963.0000;6374.6490
3964.0000;6359.7490
3965.0000;6356.1850
3966.0000;6362.1400
3967.0000;6361.7290
3968.0000;6345.7840
3969.0000;6314.7170
3970.0000;6296.6470
3971.0000;6306.3750
3972.0000;6335.9340
3973.0000;6301.8820
3974.0000;6251.6550
3975.0000;6272.3170
3976.0000;6282.1250
3977.0000;6280.6980
3978.0000;6291.4090
3979.0000;6286.3920
3980.0000;6273.7700
3981.0000;6279.1210
3982.0000;6270.4430
3983.0000;6266.9340
3984.0000;6312.1290
3985.0000;6329.2670
3986.0000;6304.5280
3987.0000;6276.0250
3988.0000;6292.2820
3989.0000;6342.3340
3990.0000;6352.7780
3991.0000;6337.4850
3992.0000;6319.1490
3993.0000;6337.8740
3994.0000;6361.7310
3995.0000;6369.3180
3996.0000;6353.6420
3997.0000;6353.7650
3998.0000;6369.5790
3999.0000;6348.6540
4000.0000;6349.4730
4001.0000;6379.1080
4002.0000;6383.0850
4003.0000;6375.7000
4004.0000;6365.9850
4005.0000;6355.5330
4006.0000;6370.1890
4007.0000;6402.6450
4008.0000;6403.5490
4009.0000;6403.8030
4010.0000;6410.3630
4011.0000;6399.0660
4012.0000;6385.6930
4013.0000;6383.2380
4014.0000;6392.9350
4015.0000;6403.3710
4016.0000;6407.6980
4017.0000;6417.0040
4018.0000;6414.6650
4019.0000;6402.4080
4020.0000;6404.8980
4021.0000;6413.9770
4022.0000;6415.6410
4023.0000;6388.8670
4024.0000;6372.7920
4025.0000;6379.6440
4026.0000;6377.3640
4027.0000;6364.8140
4028.0000;6345.4870
4029.0000;6329.6330
4030.0000;6324.4050
4031.0000;6324.7120
4032.0000;6307.3610
4033.0000;6313.5070
4034.0000;6330.6690
4035.0000;6295.2960
4036.0000;6294.2720
4037.0000;6328.9650
4038.0000;6324.3300
4039.0000;6319.9450
4040.0000;6319.1170
4041.0000;6304.5450
4042.0000;6283.1350
4043.0000;6271.4000
4044.0000;6286.2070
4045.0000;6284.4070
4046.0000;6269.6150
4047.0000;6273.9430
4048.0000;6275.0610
4049.0000;6269.9410
4050.0000;6263.9770
4051.0000;6294.1050
4052.0000;6333.9340
4053.0000;6336.0280
4054.0000;6338.2990
4055.0000;6346.7810
4056.0000;6361.2580
4057.0000;6368.9230
4058.0000;6365.6230
4059.0000;6355.2790
4060.0000;6343.4550
4061.0000;6335.8730
4062.0000;6337.0050
4063.0000;6356.6730
4064.0000;6373.1370
4065.0000;6370.0200
4066.0000;6390.5050
4067.0000;6405.7940
4068.0000;6395.2290
4069.0000;6377.5600
4070.0000;6365.9620
4071.0000;6370.6890
4072.0000;6386.9420
4073.0000;6384.0180
4074.0000;6360.2720
4075.0000;6368.4280
4076.0000;6355.9830
4077.0000;6320.6480
4078.0000;6317.2700
4079.0000;6307.0140
4080.0000;6291.2280
4081.0000;6301.0560
4082.0000;6294.3250
4083.0000;6276.7140
4084.0000;6281.2920
4085.0000;6271.5930
4086.0000;6258.1420
4087.0000;6265.1780
4088.0000;6277.6890
4089.0000;6279.6630
4090.0000;6259.8400
4091.0000;6232.4840
4092.0000;6219.6040
4093.0000;6229.6700
4094.0000;6212.0020
4095.0000;6202.6180
4096.0000;6219.7020
4097.0000;6206.0540
4098.0000;6209.5320
4099.0000;6238.1510
4100.0000;6223.3700
4101.0000;6211.5000
4102.0000;6214.1440
4103.0000;6197.5100
4104.0000;6161.3070
4105.0000;6123.5360
4106.0000;6109.6320
4107.0000;6110.0240
4108.0000;6114.5670
4109.0000;6108.1060
4110.0000;6089.1000
4111.0000;6047.7400
4112.0000;5989.3510
4113.0000;5955.1150
4114.0000;5927.6310
4115.0000;5881.3120
4116.0000;5814.1520
4117.0000;5768.4580
4118.0000;5747.0000
4119.0000;5659.2240
4120.0000;5588.9660
4121.0000;5564.2080
4122.0000;5535.3770
4123.0000;5480.2130
4124.0000;5407.4620
4125.0000;5348.5770
4126.0000;5294.0750
4127.0000;5245.4840
4128.0000;5194.3260
4129.0000;5146.7350
4130.0000;5089.7680
4131.0000;5014.7170
4132.0000;4965.5240
4133.0000;4924.0330
4134.0000;4861.7510
4135.0000;4753.6590
4136.0000;4671.7140
4137.0000;4632.2420
4138.0000;4558.7110
4139.0000;4469.0890
4140.0000;4393.2320
4141.0000;4352.2250
4142.0000;4259.9300
4143.0000;4151.3020
4144.0000;4085.1630
4145.0000;4024.4130
4146.0000;3967.0980
4147.0000;3906.9460
4148.0000;3852.6050
4149.0000;3797.6670
4150.0000;3745.6750
4151.0000;3717.7590
4152.0000;3669.9680
4153.0000;3613.3030
4154.0000;3594.3480
4155.0000;3556.9560
4156.0000;3508.9370
4157.0000;3476.3990
4158.0000;3439.9100
4159.0000;3383.5030
4160.0000;3308.6380
4161.0000;3273.5780
4162.0000;3246.0660
4163.0000;3205.1070
4164.0000;3167.8510
4165.0000;3149.0190
4166.0000;3130.8140
4167.0000;3071.3010
4168.0000;3040.3760
4169.0000;3033.3720
4170.0000;3018.6180
4171.0000;3015.8410
4172.0000;3014.6800
4173.0000;3004.7510
4174.0000;2994.2820
4175.0000;2988.0910
4176.0000;2984.2130
4177.0000;2971.6300
4178.0000;2948.4310
4179.0000;2925.6870
4180.0000;2915.5440
4181.0000;2894.2870
4182.0000;2871.0880
4183.0000;2858.6820
4184.0000;2860.2290
4185.0000;2845.7790
4186.0000;2822.8580
4187.0000;2859.9780
4188.0000;2879.1130
4189.0000;2875.4980
4190.0000;2892.9380
4191.0000;2886.1600
4192.0000;2880.6700
4193.0000;2902.4360
4194.0000;2895.0480
4195.0000;2872.9870
4196.0000;2857.1350
4197.0000;2857.2110
4198.0000;2846.7040
4199.0000;2831.5410
4200.0000;2836.7390
4201.0000;2822.9510
4202.0000;2821.2760
4203.0000;2852.5050
4204.0000;2844.0290
4205.0000;2836.2080
4206.0000;2847.5960
4207.0000;2844.5040
4208.0000;2860.4200
4209.0000;2882.7820
4210.0000;2878.6970
4211.0000;2859.4260
4212.0000;2854.9180
4213.0000;2877.9990
4214.0000;2873.4470
4215.0000;2859.6260
4216.0000;2849.6530
4217.0000;2842.8070
4218.0000;2824.5520
4219.0000;2813.9600
4220.0000;2832.5660
4221.0000;2836.7200
4222.0000;2844.1130
4223.0000;2856.8740
4224.0000;2830.6690
4225.0000;2809.5930
4226.0000;2813.4890
4227.0000;2826.8330
4228.0000;2809.2500
4229.0000;2784.4470
4230.0000;2788.1120
4231.0000;2811.0450
4232.0000;2830.2080
4233.0000;2836.3750
4234.0000;2854.7380
4235.0000;2820.7640
4236.0000;2503.9590
4237.0000;1789.7200
4238.0000;944.2518
