Raman Shift ; Dark Subtracted #1
-2.0000;11959.1200
-1.0000;11030.7600
0.0000;9772.2660
1.0000;8230.5120
2.0000;6466.3040
3.0000;4698.1050
4.0000;3228.4000
5.0000;1995.5080
6.0000;1170.0050
7.0000;888.5363
8.0000;697.5343
9.0000;595.8353
10.0000;676.7262
11.0000;658.7783
12.0000;433.2402
13.0000;197.4812
14.0000;27.8410
15.0000;-21.6572
16.0000;18.2051
17.0000;58.3104
18.0000;58.5992
19.0000;60.1463
20.0000;59.2996
21.0000;53.3195
22.0000;46.0298
23.0000;40.5303
24.0000;39.1107
25.0000;40.4214
26.0000;41.7121
27.0000;40.4919
28.0000;38.9155
29.0000;37.7461
30.0000;37.8548
31.0000;38.4675
32.0000;38.4092
33.0000;36.0190
34.0000;33.1574
35.0000;31.5907
36.0000;32.9825
37.0000;36.1885
38.0000;39.4243
39.0000;41.1124
40.0000;41.3302
41.0000;40.4773
42.0000;39.3402
43.0000;37.3063
44.0000;34.7447
45.0000;31.6454
46.0000;28.6795
47.0000;26.3231
48.0000;24.4683
49.0000;23.9009
50.0000;24.0559
51.0000;23.9233
52.0000;24.1663
53.0000;24.6913
54.0000;25.0714
55.0000;25.5593
56.0000;26.4403
57.0000;26.7258
58.0000;27.5208
59.0000;31.1522
60.0000;40.1941
61.0000;53.3403
62.0000;67.2780
63.0000;79.2066
64.0000;87.2233
65.0000;95.7889
66.0000;109.4681
67.0000;125.9656
68.0000;146.2964
69.0000;173.5372
70.0000;203.8117
71.0000;236.2423
72.0000;275.7251
73.0000;314.4695
74.0000;348.9483
75.0000;382.8623
76.0000;406.7184
77.0000;429.4036
78.0000;468.5908
79.0000;516.1517
80.0000;562.4664
81.0000;605.5060
82.0000;636.9827
83.0000;668.0225
84.0000;718.6555
85.0000;780.9490
86.0000;843.2343
87.0000;906.2373
88.0000;958.1764
89.0000;1004.4640
90.0000;1062.5010
91.0000;1122.6040
92.0000;1178.6340
93.0000;1241.1510
94.0000;1299.1450
95.0000;1354.1270
96.0000;1421.9620
97.0000;1493.3210
98.0000;1558.5040
99.0000;1627.7300
100.0000;1690.3770
101.0000;1740.2990
102.0000;1799.0250
103.0000;1856.6240
104.0000;1907.4990
105.0000;1962.5540
106.0000;2013.8660
107.0000;2059.0220
108.0000;2116.1800
109.0000;2174.3310
110.0000;2227.6630
111.0000;2287.7890
112.0000;2347.6240
113.0000;2395.5950
114.0000;2444.4580
115.0000;2485.4510
116.0000;2518.9110
117.0000;2562.3130
118.0000;2611.7550
119.0000;2656.8100
120.0000;2700.0950
121.0000;2735.1850
122.0000;2760.8690
123.0000;2788.7260
124.0000;2814.9990
125.0000;2837.7840
126.0000;2866.5890
127.0000;2898.7780
128.0000;2929.0080
129.0000;2960.0540
130.0000;2987.8620
131.0000;3009.7120
132.0000;3031.0450
133.0000;3048.5520
134.0000;3062.3240
135.0000;3081.3720
136.0000;3104.1720
137.0000;3124.7510
138.0000;3142.4590
139.0000;3154.4010
140.0000;3162.2110
141.0000;3176.2070
142.0000;3195.9850
143.0000;3211.5680
144.0000;3219.8440
145.0000;3216.7530
146.0000;3210.5660
147.0000;3213.4290
148.0000;3226.6580
149.0000;3243.8270
150.0000;3260.4950
151.0000;3274.8370
152.0000;3283.2100
153.0000;3285.3110
154.0000;3278.4190
155.0000;3269.6150
156.0000;3268.8780
157.0000;3277.7080
158.0000;3289.8810
159.0000;3299.2290
160.0000;3304.5400
161.0000;3307.1110
162.0000;3309.6600
163.0000;3311.0660
164.0000;3312.0000
165.0000;3315.0910
166.0000;3319.9920
167.0000;3324.2730
168.0000;3326.8640
169.0000;3326.8480
170.0000;3326.0410
171.0000;3327.1250
172.0000;3329.8530
173.0000;3332.7090
174.0000;3334.9200
175.0000;3336.0420
176.0000;3337.1040
177.0000;3339.6000
178.0000;3342.9320
179.0000;3346.6770
180.0000;3351.0360
181.0000;3355.2410
182.0000;3358.0460
183.0000;3358.5330
184.0000;3356.5210
185.0000;3355.8060
186.0000;3360.9890
187.0000;3370.6670
188.0000;3381.2100
189.0000;3390.1880
190.0000;3395.2450
191.0000;3396.1960
192.0000;3393.3340
193.0000;3386.1540
194.0000;3378.4010
195.0000;3374.6330
196.0000;3374.7560
197.0000;3376.9510
198.0000;3378.8090
199.0000;3381.2660
200.0000;3383.6190
201.0000;3384.2640
202.0000;3384.1100
203.0000;3385.5210
204.0000;3391.5230
205.0000;3400.1090
206.0000;3407.6900
207.0000;3411.7200
208.0000;3412.0500
209.0000;3411.3140
210.0000;3412.8960
211.0000;3414.6600
212.0000;3416.6390
213.0000;3418.4850
214.0000;3420.3700
215.0000;3423.4000
216.0000;3429.1270
217.0000;3435.5470
218.0000;3441.1630
219.0000;3444.8900
220.0000;3447.0980
221.0000;3450.9540
222.0000;3459.4780
223.0000;3469.2760
224.0000;3478.1090
225.0000;3484.9980
226.0000;3488.5070
227.0000;3490.6910
228.0000;3491.4930
229.0000;3492.1680
230.0000;3497.7280
231.0000;3512.0070
232.0000;3528.3020
233.0000;3539.5870
234.0000;3540.8360
235.0000;3536.0740
236.0000;3533.5640
237.0000;3537.0270
238.0000;3542.4730
239.0000;3548.1100
240.0000;3552.7090
241.0000;3557.1100
242.0000;3562.7730
243.0000;3570.0620
244.0000;3576.9450
245.0000;3583.9410
246.0000;3590.2330
247.0000;3593.7480
248.0000;3594.9320
249.0000;3592.8100
250.0000;3588.6360
251.0000;3584.8940
252.0000;3582.3230
253.0000;3580.6460
254.0000;3578.9540
255.0000;3577.9460
256.0000;3579.2800
257.0000;3584.1930
258.0000;3592.4900
259.0000;3600.9090
260.0000;3606.1810
261.0000;3607.4690
262.0000;3608.0550
263.0000;3613.4500
264.0000;3621.1220
265.0000;3626.2710
266.0000;3624.2400
267.0000;3616.1170
268.0000;3609.2310
269.0000;3611.2250
270.0000;3620.0440
271.0000;3629.9260
272.0000;3634.2010
273.0000;3635.5830
274.0000;3639.1210
275.0000;3650.3280
276.0000;3665.0600
277.0000;3680.1000
278.0000;3695.7460
279.0000;3707.1350
280.0000;3714.3400
281.0000;3718.8350
282.0000;3717.5050
283.0000;3714.8650
284.0000;3713.1760
285.0000;3712.6410
286.0000;3716.6840
287.0000;3729.1350
288.0000;3743.2200
289.0000;3751.5850
290.0000;3748.2340
291.0000;3740.0700
292.0000;3736.8560
293.0000;3742.7870
294.0000;3753.1670
295.0000;3764.9370
296.0000;3776.6750
297.0000;3785.6870
298.0000;3790.2240
299.0000;3788.0450
300.0000;3783.2190
301.0000;3782.5080
302.0000;3786.8930
303.0000;3794.1180
304.0000;3804.0060
305.0000;3815.2510
306.0000;3823.9710
307.0000;3827.0860
308.0000;3822.9820
309.0000;3817.6190
310.0000;3818.3100
311.0000;3823.4420
312.0000;3829.0810
313.0000;3831.4890
314.0000;3831.4100
315.0000;3831.7950
316.0000;3836.2520
317.0000;3842.3890
318.0000;3847.7560
319.0000;3849.6140
320.0000;3849.3180
321.0000;3850.9700
322.0000;3859.1010
323.0000;3869.4830
324.0000;3879.0730
325.0000;3885.3200
326.0000;3887.8560
327.0000;3889.1430
328.0000;3890.8500
329.0000;3890.9200
330.0000;3890.3280
331.0000;3888.7060
332.0000;3888.3510
333.0000;3892.0350
334.0000;3900.6260
335.0000;3912.9170
336.0000;3929.1570
337.0000;3947.1700
338.0000;3961.9060
339.0000;3970.2690
340.0000;3968.7590
341.0000;3963.6610
342.0000;3964.9200
343.0000;3972.5510
344.0000;3982.2050
345.0000;3992.4700
346.0000;4002.0680
347.0000;4009.7590
348.0000;4017.3470
349.0000;4022.0170
350.0000;4023.9530
351.0000;4025.0540
352.0000;4024.0230
353.0000;4023.6390
354.0000;4027.1950
355.0000;4032.7710
356.0000;4038.1680
357.0000;4042.9630
358.0000;4045.7580
359.0000;4047.1740
360.0000;4048.0860
361.0000;4046.8870
362.0000;4043.9980
363.0000;4039.0620
364.0000;4034.7060
365.0000;4034.3450
366.0000;4040.2820
367.0000;4048.5520
368.0000;4053.3490
369.0000;4052.6640
370.0000;4049.9560
371.0000;4049.1110
372.0000;4050.6660
373.0000;4054.5810
374.0000;4063.0240
375.0000;4074.4150
376.0000;4083.6070
377.0000;4083.3470
378.0000;4074.5400
379.0000;4068.8900
380.0000;4080.3550
381.0000;4102.4370
382.0000;4122.0360
383.0000;4128.4580
384.0000;4122.4790
385.0000;4112.7000
386.0000;4105.5590
387.0000;4101.2850
388.0000;4104.3310
389.0000;4120.1320
390.0000;4141.3250
391.0000;4155.2670
392.0000;4153.6970
393.0000;4144.9770
394.0000;4141.9130
395.0000;4150.6360
396.0000;4163.1210
397.0000;4172.7140
398.0000;4177.0930
399.0000;4178.3860
400.0000;4180.2910
401.0000;4182.3870
402.0000;4184.7140
403.0000;4189.3430
404.0000;4195.5660
405.0000;4202.2090
406.0000;4209.4930
407.0000;4215.8780
408.0000;4222.6440
409.0000;4232.4390
410.0000;4241.6090
411.0000;4249.4110
412.0000;4256.6500
413.0000;4260.3230
414.0000;4261.5410
415.0000;4259.4680
416.0000;4257.2740
417.0000;4262.8180
418.0000;4282.2000
419.0000;4305.4480
420.0000;4320.6360
421.0000;4320.4010
422.0000;4313.1300
423.0000;4312.9110
424.0000;4322.8220
425.0000;4333.5870
426.0000;4337.5540
427.0000;4332.8200
428.0000;4326.4790
429.0000;4327.5550
430.0000;4334.5800
431.0000;4338.6310
432.0000;4330.0840
433.0000;4312.7500
434.0000;4298.6810
435.0000;4297.2570
436.0000;4307.0400
437.0000;4320.5240
438.0000;4331.4570
439.0000;4340.5870
440.0000;4347.6340
441.0000;4351.2010
442.0000;4351.7050
443.0000;4354.3910
444.0000;4362.0700
445.0000;4370.4140
446.0000;4377.7270
447.0000;4382.4570
448.0000;4384.7400
449.0000;4386.3710
450.0000;4386.7110
451.0000;4388.2530
452.0000;4395.3840
453.0000;4406.9650
454.0000;4418.4440
455.0000;4429.4080
456.0000;4436.1070
457.0000;4437.3610
458.0000;4432.3770
459.0000;4422.1900
460.0000;4414.9040
461.0000;4416.5360
462.0000;4424.5090
463.0000;4433.6890
464.0000;4440.3420
465.0000;4446.3840
466.0000;4453.4040
467.0000;4461.1500
468.0000;4469.1940
469.0000;4480.3580
470.0000;4494.7590
471.0000;4506.1620
472.0000;4511.1720
473.0000;4507.5030
474.0000;4502.3850
475.0000;4505.4000
476.0000;4514.9030
477.0000;4526.3320
478.0000;4537.6930
479.0000;4546.6730
480.0000;4552.2000
481.0000;4554.2710
482.0000;4551.9960
483.0000;4550.8450
484.0000;4555.0840
485.0000;4560.7790
486.0000;4565.6040
487.0000;4568.0360
488.0000;4568.9410
489.0000;4570.5400
490.0000;4572.9970
491.0000;4574.7220
492.0000;4575.0910
493.0000;4573.7870
494.0000;4572.6190
495.0000;4573.7130
496.0000;4576.8030
497.0000;4580.5770
498.0000;4583.0440
499.0000;4585.2270
500.0000;4589.5000
501.0000;4597.6340
502.0000;4608.2470
503.0000;4621.2140
504.0000;4638.2420
505.0000;4652.6060
506.0000;4661.5310
507.0000;4662.7400
508.0000;4655.3780
509.0000;4644.9960
510.0000;4632.3780
511.0000;4620.0220
512.0000;4609.6310
513.0000;4604.4120
514.0000;4606.3930
515.0000;4614.9590
516.0000;4630.8480
517.0000;4649.0170
518.0000;4664.9990
519.0000;4675.9330
520.0000;4681.9480
521.0000;4684.7190
522.0000;4681.3500
523.0000;4676.9470
524.0000;4673.5050
525.0000;4672.2300
526.0000;4675.7300
527.0000;4685.1900
528.0000;4698.3390
529.0000;4712.4850
530.0000;4724.8650
531.0000;4737.3420
532.0000;4753.6440
533.0000;4770.2330
534.0000;4786.5610
535.0000;4804.7830
536.0000;4819.9260
537.0000;4833.2000
538.0000;4849.8300
539.0000;4862.0180
540.0000;4873.2210
541.0000;4885.0350
542.0000;4894.2800
543.0000;4904.6280
544.0000;4916.5130
545.0000;4927.2210
546.0000;4939.2570
547.0000;4950.0780
548.0000;4959.9980
549.0000;4973.8040
550.0000;4987.2870
551.0000;4998.6890
552.0000;5008.6980
553.0000;5014.8330
554.0000;5021.1000
555.0000;5035.3520
556.0000;5049.6880
557.0000;5060.0670
558.0000;5064.1800
559.0000;5063.1620
560.0000;5064.1670
561.0000;5069.2890
562.0000;5076.0190
563.0000;5084.4650
564.0000;5093.7300
565.0000;5101.7130
566.0000;5107.6610
567.0000;5109.8750
568.0000;5109.9910
569.0000;5111.4960
570.0000;5112.4670
571.0000;5113.2340
572.0000;5114.2550
573.0000;5115.4460
574.0000;5117.9340
575.0000;5123.1250
576.0000;5127.7450
577.0000;5129.4140
578.0000;5126.5110
579.0000;5121.9290
580.0000;5120.9590
581.0000;5123.5580
582.0000;5124.3130
583.0000;5117.0880
584.0000;5103.7840
585.0000;5092.1280
586.0000;5086.3080
587.0000;5087.2850
588.0000;5091.0940
589.0000;5095.0680
590.0000;5099.5190
591.0000;5101.1270
592.0000;5098.0650
593.0000;5092.6680
594.0000;5088.6470
595.0000;5087.3230
596.0000;5084.1570
597.0000;5073.2460
598.0000;5056.5360
599.0000;5043.6260
600.0000;5041.0800
601.0000;5048.4470
602.0000;5056.3770
603.0000;5056.0830
604.0000;5051.4760
605.0000;5044.2520
606.0000;5035.1660
607.0000;5026.8610
608.0000;5023.1670
609.0000;5026.2610
610.0000;5031.9880
611.0000;5033.6160
612.0000;5031.0240
613.0000;5027.6930
614.0000;5025.4040
615.0000;5024.9250
616.0000;5027.0920
617.0000;5033.9330
618.0000;5042.5850
619.0000;5048.1690
620.0000;5047.2850
621.0000;5043.0930
622.0000;5041.6660
623.0000;5045.8200
624.0000;5049.3430
625.0000;5046.3120
626.0000;5036.2510
627.0000;5027.4330
628.0000;5027.7480
629.0000;5035.9820
630.0000;5043.0000
631.0000;5040.3430
632.0000;5032.2590
633.0000;5025.3500
634.0000;5024.4540
635.0000;5025.9090
636.0000;5025.7230
637.0000;5022.8330
638.0000;5017.7610
639.0000;5009.4390
640.0000;4998.9020
641.0000;4990.5350
642.0000;4986.5630
643.0000;4988.5000
644.0000;4991.9320
645.0000;4992.2870
646.0000;4991.3120
647.0000;4988.8430
648.0000;4985.1530
649.0000;4979.8780
650.0000;4972.2130
651.0000;4961.4990
652.0000;4953.8400
653.0000;4954.3920
654.0000;4964.3900
655.0000;4974.5070
656.0000;4975.3010
657.0000;4968.1180
658.0000;4959.9000
659.0000;4956.4310
660.0000;4955.8420
661.0000;4956.4890
662.0000;4958.5640
663.0000;4959.5410
664.0000;4954.9790
665.0000;4943.4750
666.0000;4930.2080
667.0000;4920.3520
668.0000;4915.5430
669.0000;4910.9780
670.0000;4899.3440
671.0000;4886.1700
672.0000;4875.9600
673.0000;4871.2080
674.0000;4871.9220
675.0000;4871.7020
676.0000;4867.7740
677.0000;4863.1790
678.0000;4858.3980
679.0000;4854.1760
680.0000;4849.6950
681.0000;4842.5050
682.0000;4834.3160
683.0000;4826.5950
684.0000;4815.8690
685.0000;4809.0340
686.0000;4811.1900
687.0000;4828.7200
688.0000;4850.4530
689.0000;4860.0710
690.0000;4849.4090
691.0000;4830.0420
692.0000;4815.2460
693.0000;4807.7680
694.0000;4806.6230
695.0000;4810.8740
696.0000;4821.1590
697.0000;4830.6460
698.0000;4831.7470
699.0000;4829.2790
700.0000;4830.6530
701.0000;4840.4210
702.0000;4851.5450
703.0000;4858.2410
704.0000;4857.6600
705.0000;4855.5270
706.0000;4860.2080
707.0000;4868.6030
708.0000;4873.9120
709.0000;4871.5530
710.0000;4862.6770
711.0000;4852.2740
712.0000;4842.7530
713.0000;4836.1030
714.0000;4833.5370
715.0000;4836.8340
716.0000;4843.8750
717.0000;4850.2600
718.0000;4855.4910
719.0000;4859.7860
720.0000;4864.3380
721.0000;4866.9220
722.0000;4867.5030
723.0000;4865.5380
724.0000;4862.6900
725.0000;4863.0950
726.0000;4868.7480
727.0000;4876.1500
728.0000;4881.3960
729.0000;4883.5030
730.0000;4883.9550
731.0000;4884.6070
732.0000;4884.8030
733.0000;4886.0950
734.0000;4890.8800
735.0000;4896.0920
736.0000;4898.6490
737.0000;4895.9730
738.0000;4892.6130
739.0000;4895.0000
740.0000;4903.7140
741.0000;4911.8310
742.0000;4911.5600
743.0000;4904.8430
744.0000;4899.6000
745.0000;4902.7830
746.0000;4911.0320
747.0000;4920.8900
748.0000;4931.4350
749.0000;4938.3400
750.0000;4938.8690
751.0000;4931.1100
752.0000;4920.9580
753.0000;4917.0760
754.0000;4918.5200
755.0000;4921.0000
756.0000;4921.6640
757.0000;4920.4060
758.0000;4914.4620
759.0000;4901.4140
760.0000;4889.1350
761.0000;4885.5840
762.0000;4894.1950
763.0000;4906.8310
764.0000;4913.7040
765.0000;4915.2460
766.0000;4916.5000
767.0000;4922.8300
768.0000;4929.5360
769.0000;4934.6940
770.0000;4936.3080
771.0000;4935.8220
772.0000;4936.6920
773.0000;4939.1270
774.0000;4942.8590
775.0000;4949.4570
776.0000;4957.0700
777.0000;4961.5000
778.0000;4959.0320
779.0000;4952.9790
780.0000;4950.9230
781.0000;4957.7230
782.0000;4967.1900
783.0000;4974.5300
784.0000;4977.3480
785.0000;4976.2710
786.0000;4972.4790
787.0000;4965.5440
788.0000;4959.2350
789.0000;4955.2150
790.0000;4954.8170
791.0000;4956.6960
792.0000;4959.8870
793.0000;4967.2520
794.0000;4981.1610
795.0000;5000.6260
796.0000;5014.9740
797.0000;5016.8220
798.0000;5006.0850
799.0000;4995.8710
800.0000;4996.2310
801.0000;5001.2410
802.0000;5005.7840
803.0000;5007.3380
804.0000;5009.4550
805.0000;5016.0840
806.0000;5025.4440
807.0000;5032.2500
808.0000;5031.5620
809.0000;5024.7020
810.0000;5019.2540
811.0000;5021.5790
812.0000;5025.2370
813.0000;5023.3710
814.0000;5013.7140
815.0000;5002.7780
816.0000;4995.2730
817.0000;4992.9550
818.0000;4995.6660
819.0000;5002.4410
820.0000;5012.6530
821.0000;5020.6040
822.0000;5023.0680
823.0000;5020.8600
824.0000;5016.5930
825.0000;5010.6270
826.0000;5004.7300
827.0000;5002.7390
828.0000;5003.8520
829.0000;5003.1700
830.0000;4994.0580
831.0000;4984.3300
832.0000;4981.5840
833.0000;4990.0550
834.0000;5001.9380
835.0000;5007.0860
836.0000;5004.6650
837.0000;5000.5090
838.0000;5000.8140
839.0000;5002.9820
840.0000;5004.4850
841.0000;5002.5570
842.0000;5001.9750
843.0000;5008.9040
844.0000;5024.0680
845.0000;5038.1400
846.0000;5041.1370
847.0000;5032.8960
848.0000;5023.6900
849.0000;5022.8590
850.0000;5026.0380
851.0000;5029.4310
852.0000;5030.9600
853.0000;5033.3800
854.0000;5038.7800
855.0000;5046.3600
856.0000;5054.3950
857.0000;5061.1770
858.0000;5066.0780
859.0000;5072.4490
860.0000;5083.8990
861.0000;5093.3970
862.0000;5097.2610
863.0000;5093.1800
864.0000;5085.4410
865.0000;5079.1490
866.0000;5075.9070
867.0000;5078.9860
868.0000;5091.5490
869.0000;5109.7870
870.0000;5126.0440
871.0000;5135.4460
872.0000;5141.0650
873.0000;5151.0020
874.0000;5162.0300
875.0000;5168.9960
876.0000;5169.7900
877.0000;5164.7480
878.0000;5161.9880
879.0000;5167.5050
880.0000;5175.0000
881.0000;5178.1050
882.0000;5175.1500
883.0000;5174.1830
884.0000;5183.8520
885.0000;5200.9570
886.0000;5217.9300
887.0000;5230.0340
888.0000;5236.6640
889.0000;5242.2120
890.0000;5246.3810
891.0000;5250.7500
892.0000;5261.7490
893.0000;5276.5630
894.0000;5290.3000
895.0000;5300.3270
896.0000;5305.9620
897.0000;5313.6980
898.0000;5325.4410
899.0000;5337.7880
900.0000;5352.4530
901.0000;5366.6530
902.0000;5378.9700
903.0000;5392.0850
904.0000;5401.3720
905.0000;5409.3160
906.0000;5417.9950
907.0000;5423.4060
908.0000;5427.7300
909.0000;5429.7110
910.0000;5430.0860
911.0000;5430.4020
912.0000;5431.5010
913.0000;5437.6600
914.0000;5452.6760
915.0000;5470.6590
916.0000;5485.6470
917.0000;5493.6700
918.0000;5500.1650
919.0000;5515.0650
920.0000;5532.7370
921.0000;5547.5000
922.0000;5556.4250
923.0000;5559.4500
924.0000;5565.8160
925.0000;5577.6650
926.0000;5588.7360
927.0000;5596.9510
928.0000;5600.5610
929.0000;5603.8000
930.0000;5612.7440
931.0000;5622.5130
932.0000;5632.9180
933.0000;5642.3810
934.0000;5648.9940
935.0000;5654.7160
936.0000;5656.9550
937.0000;5656.2820
938.0000;5654.4730
939.0000;5651.1930
940.0000;5650.3150
941.0000;5654.3010
942.0000;5658.6350
943.0000;5656.9000
944.0000;5649.5010
945.0000;5644.7080
946.0000;5651.0790
947.0000;5664.0890
948.0000;5675.7340
949.0000;5680.8850
950.0000;5680.1020
951.0000;5675.7490
952.0000;5667.5290
953.0000;5657.3370
954.0000;5647.1970
955.0000;5639.3440
956.0000;5632.6640
957.0000;5626.7710
958.0000;5624.9700
959.0000;5626.9500
960.0000;5633.1760
961.0000;5639.4860
962.0000;5639.3700
963.0000;5635.4930
964.0000;5634.1240
965.0000;5640.2080
966.0000;5647.8090
967.0000;5649.7130
968.0000;5644.5030
969.0000;5640.5070
970.0000;5645.9430
971.0000;5657.5780
972.0000;5669.2000
973.0000;5674.4450
974.0000;5679.3970
975.0000;5693.1050
976.0000;5714.6350
977.0000;5737.0490
978.0000;5757.0690
979.0000;5769.7570
980.0000;5776.9050
981.0000;5780.3560
982.0000;5777.5490
983.0000;5774.6020
984.0000;5771.9580
985.0000;5771.6220
986.0000;5777.9620
987.0000;5787.8290
988.0000;5795.0070
989.0000;5793.9810
990.0000;5790.0220
991.0000;5791.5340
992.0000;5799.1530
993.0000;5807.8370
994.0000;5814.0180
995.0000;5816.8430
996.0000;5817.1870
997.0000;5814.8370
998.0000;5812.3000
999.0000;5815.0440
1000.0000;5823.8330
1001.0000;5833.8630
1002.0000;5842.7250
1003.0000;5847.9920
1004.0000;5848.5260
1005.0000;5843.5610
1006.0000;5834.7220
1007.0000;5826.5390
1008.0000;5821.1210
1009.0000;5820.3040
1010.0000;5824.6070
1011.0000;5834.5160
1012.0000;5846.9450
1013.0000;5859.5190
1014.0000;5869.8160
1015.0000;5878.5290
1016.0000;5882.5570
1017.0000;5883.1040
1018.0000;5884.5700
1019.0000;5883.5320
1020.0000;5880.2950
1021.0000;5874.1570
1022.0000;5871.9410
1023.0000;5881.1460
1024.0000;5901.0270
1025.0000;5921.1150
1026.0000;5935.1300
1027.0000;5940.9100
1028.0000;5940.5920
1029.0000;5933.1120
1030.0000;5926.1480
1031.0000;5932.5640
1032.0000;5949.7870
1033.0000;5965.4230
1034.0000;5970.5820
1035.0000;5968.4150
1036.0000;5965.7060
1037.0000;5963.3880
1038.0000;5965.7360
1039.0000;5980.4630
1040.0000;6002.9490
1041.0000;6021.6040
1042.0000;6027.4500
1043.0000;6026.8530
1044.0000;6034.3520
1045.0000;6050.5050
1046.0000;6063.9590
1047.0000;6067.4200
1048.0000;6062.0840
1049.0000;6058.6020
1050.0000;6062.2470
1051.0000;6070.7790
1052.0000;6083.2850
1053.0000;6099.4240
1054.0000;6117.4300
1055.0000;6138.4290
1056.0000;6156.6940
1057.0000;6173.4870
1058.0000;6187.0500
1059.0000;6196.6270
1060.0000;6211.2460
1061.0000;6225.3920
1062.0000;6234.2610
1063.0000;6236.5060
1064.0000;6232.3280
1065.0000;6230.6840
1066.0000;6233.7810
1067.0000;6240.8430
1068.0000;6253.8340
1069.0000;6269.6720
1070.0000;6283.0200
1071.0000;6290.2400
1072.0000;6291.9560
1073.0000;6294.0900
1074.0000;6296.5840
1075.0000;6302.5650
1076.0000;6316.2960
1077.0000;6335.3810
1078.0000;6358.8180
1079.0000;6386.0090
1080.0000;6407.3960
1081.0000;6418.9530
1082.0000;6416.5400
1083.0000;6413.4910
1084.0000;6425.0490
1085.0000;6441.0620
1086.0000;6456.7900
1087.0000;6468.8930
1088.0000;6476.4480
1089.0000;6481.7970
1090.0000;6482.6150
1091.0000;6484.5530
1092.0000;6492.8890
1093.0000;6501.3050
1094.0000;6506.4920
1095.0000;6506.5660
1096.0000;6504.3130
1097.0000;6507.1320
1098.0000;6508.0330
1099.0000;6498.9690
1100.0000;6475.1260
1101.0000;6450.2400
1102.0000;6437.9430
1103.0000;6441.3550
1104.0000;6447.1830
1105.0000;6444.9360
1106.0000;6437.9450
1107.0000;6423.3700
1108.0000;6402.2690
1109.0000;6381.2430
1110.0000;6364.5190
1111.0000;6355.3420
1112.0000;6347.7810
1113.0000;6339.0110
1114.0000;6329.7850
1115.0000;6311.6410
1116.0000;6288.3500
1117.0000;6267.3680
1118.0000;6253.3810
1119.0000;6245.9700
1120.0000;6231.5920
1121.0000;6206.9340
1122.0000;6181.7640
1123.0000;6161.1750
1124.0000;6148.3450
1125.0000;6133.8870
1126.0000;6110.3080
1127.0000;6089.3360
1128.0000;6072.8100
1129.0000;6065.8800
1130.0000;6061.4420
1131.0000;6047.2230
1132.0000;6032.1360
1133.0000;6017.8000
1134.0000;6006.5230
1135.0000;5997.2970
1136.0000;5981.9620
1137.0000;5965.7850
1138.0000;5950.9320
1139.0000;5937.9670
1140.0000;5928.7800
1141.0000;5914.3640
1142.0000;5897.2490
1143.0000;5883.4960
1144.0000;5876.4630
1145.0000;5875.8700
1146.0000;5870.4300
1147.0000;5855.9320
1148.0000;5838.5860
1149.0000;5820.7220
1150.0000;5805.9040
1151.0000;5796.0560
1152.0000;5792.2070
1153.0000;5791.4280
1154.0000;5778.8160
1155.0000;5754.9670
1156.0000;5734.5170
1157.0000;5731.3570
1158.0000;5739.8030
1159.0000;5738.7500
1160.0000;5718.2000
1161.0000;5696.9640
1162.0000;5689.4990
1163.0000;5695.9460
1164.0000;5700.5570
1165.0000;5690.2080
1166.0000;5676.3770
1167.0000;5670.2100
1168.0000;5673.7840
1169.0000;5675.2160
1170.0000;5660.6410
1171.0000;5639.8860
1172.0000;5626.1060
1173.0000;5626.2330
1174.0000;5631.2190
1175.0000;5626.9100
1176.0000;5618.1810
1177.0000;5613.6440
1178.0000;5618.3500
1179.0000;5627.5210
1180.0000;5633.6940
1181.0000;5635.3620
1182.0000;5634.7000
1183.0000;5634.4610
1184.0000;5632.4710
1185.0000;5629.1030
1186.0000;5624.7080
1187.0000;5619.9680
1188.0000;5614.1230
1189.0000;5609.4460
1190.0000;5606.9990
1191.0000;5607.1850
1192.0000;5610.4580
1193.0000;5614.6750
1194.0000;5619.8030
1195.0000;5624.8070
1196.0000;5628.8150
1197.0000;5631.4840
1198.0000;5636.1230
1199.0000;5642.0220
1200.0000;5643.1430
1201.0000;5635.0530
1202.0000;5620.7920
1203.0000;5610.1280
1204.0000;5608.6140
1205.0000;5608.4860
1206.0000;5598.6370
1207.0000;5583.8720
1208.0000;5573.4950
1209.0000;5572.3440
1210.0000;5579.4950
1211.0000;5589.7370
1212.0000;5602.2800
1213.0000;5611.1690
1214.0000;5611.6080
1215.0000;5605.2030
1216.0000;5599.5780
1217.0000;5596.8210
1218.0000;5597.3170
1219.0000;5603.2820
1220.0000;5612.4110
1221.0000;5618.5050
1222.0000;5618.1530
1223.0000;5613.7270
1224.0000;5609.0510
1225.0000;5604.1670
1226.0000;5600.3030
1227.0000;5598.2690
1228.0000;5598.1290
1229.0000;5598.8680
1230.0000;5599.8900
1231.0000;5596.7250
1232.0000;5580.8190
1233.0000;5565.0440
1234.0000;5565.3880
1235.0000;5587.1210
1236.0000;5610.7200
1237.0000;5616.3990
1238.0000;5609.2770
1239.0000;5604.4340
1240.0000;5608.1100
1241.0000;5611.0640
1242.0000;5606.3900
1243.0000;5596.5380
1244.0000;5589.0490
1245.0000;5588.9660
1246.0000;5592.0580
1247.0000;5591.9950
1248.0000;5589.0160
1249.0000;5584.9050
1250.0000;5578.0350
1251.0000;5574.5080
1252.0000;5582.1690
1253.0000;5601.6750
1254.0000;5616.2050
1255.0000;5607.5530
1256.0000;5587.5870
1257.0000;5580.0490
1258.0000;5593.4310
1259.0000;5608.4440
1260.0000;5605.7090
1261.0000;5591.7220
1262.0000;5581.3550
1263.0000;5582.2200
1264.0000;5588.3980
1265.0000;5593.2080
1266.0000;5596.9980
1267.0000;5599.4960
1268.0000;5600.4440
1269.0000;5598.8940
1270.0000;5595.7410
1271.0000;5590.9970
1272.0000;5586.2860
1273.0000;5581.8960
1274.0000;5579.8020
1275.0000;5579.8430
1276.0000;5582.9110
1277.0000;5588.6290
1278.0000;5596.9220
1279.0000;5605.2650
1280.0000;5610.6170
1281.0000;5610.5910
1282.0000;5610.0030
1283.0000;5616.7660
1284.0000;5625.6340
1285.0000;5629.0600
1286.0000;5623.4500
1287.0000;5616.0330
1288.0000;5615.7130
1289.0000;5621.1340
1290.0000;5626.7220
1291.0000;5628.9320
1292.0000;5631.4070
1293.0000;5638.6070
1294.0000;5648.3240
1295.0000;5655.6080
1296.0000;5656.3330
1297.0000;5653.9460
1298.0000;5657.1430
1299.0000;5664.5270
1300.0000;5667.7040
1301.0000;5659.4620
1302.0000;5646.9340
1303.0000;5640.2670
1304.0000;5642.5660
1305.0000;5647.0180
1306.0000;5645.9970
1307.0000;5644.4100
1308.0000;5646.4140
1309.0000;5653.2370
1310.0000;5658.9740
1311.0000;5656.8180
1312.0000;5651.8750
1313.0000;5654.6370
1314.0000;5668.7890
1315.0000;5686.6070
1316.0000;5705.6050
1317.0000;5717.8320
1318.0000;5717.3010
1319.0000;5698.6000
1320.0000;5677.7400
1321.0000;5678.9270
1322.0000;5697.6830
1323.0000;5712.6120
1324.0000;5713.3980
1325.0000;5703.6050
1326.0000;5683.9460
1327.0000;5660.0590
1328.0000;5646.5720
1329.0000;5655.6100
1330.0000;5676.5690
1331.0000;5688.7470
1332.0000;5691.2700
1333.0000;5691.9180
1334.0000;5696.9140
1335.0000;5700.6020
1336.0000;5702.7450
1337.0000;5702.0380
1338.0000;5697.7480
1339.0000;5688.0630
1340.0000;5678.6100
1341.0000;5676.2030
1342.0000;5683.3100
1343.0000;5691.3000
1344.0000;5693.4190
1345.0000;5690.8850
1346.0000;5685.2130
1347.0000;5676.9500
1348.0000;5669.4970
1349.0000;5664.9810
1350.0000;5664.3780
1351.0000;5664.2180
1352.0000;5664.1580
1353.0000;5665.1050
1354.0000;5668.1830
1355.0000;5670.3560
1356.0000;5665.3000
1357.0000;5651.2340
1358.0000;5639.7860
1359.0000;5644.0920
1360.0000;5658.7890
1361.0000;5667.9770
1362.0000;5665.4640
1363.0000;5657.2270
1364.0000;5649.0740
1365.0000;5641.2380
1366.0000;5636.4350
1367.0000;5636.7870
1368.0000;5639.7710
1369.0000;5640.3540
1370.0000;5640.0270
1371.0000;5640.6380
1372.0000;5642.9000
1373.0000;5645.2700
1374.0000;5646.3230
1375.0000;5646.3430
1376.0000;5647.9980
1377.0000;5653.1180
1378.0000;5656.1900
1379.0000;5651.7110
1380.0000;5641.6200
1381.0000;5634.5730
1382.0000;5635.3430
1383.0000;5641.6910
1384.0000;5651.0330
1385.0000;5661.4510
1386.0000;5665.8670
1387.0000;5658.8650
1388.0000;5648.8090
1389.0000;5648.3850
1390.0000;5655.7890
1391.0000;5660.8060
1392.0000;5656.6520
1393.0000;5652.4230
1394.0000;5657.9650
1395.0000;5671.1120
1396.0000;5681.2280
1397.0000;5681.1590
1398.0000;5677.2180
1399.0000;5679.8720
1400.0000;5686.5490
1401.0000;5689.9870
1402.0000;5686.3600
1403.0000;5678.3790
1404.0000;5668.8510
1405.0000;5660.3860
1406.0000;5657.0430
1407.0000;5660.3630
1408.0000;5672.1560
1409.0000;5693.0520
1410.0000;5717.7060
1411.0000;5733.0590
1412.0000;5730.2700
1413.0000;5716.2030
1414.0000;5706.4980
1415.0000;5701.1990
1416.0000;5698.2640
1417.0000;5696.8750
1418.0000;5699.5950
1419.0000;5706.1510
1420.0000;5715.6350
1421.0000;5722.4130
1422.0000;5722.6170
1423.0000;5721.1430
1424.0000;5727.2080
1425.0000;5737.1310
1426.0000;5741.5350
1427.0000;5733.8730
1428.0000;5724.6580
1429.0000;5729.2940
1430.0000;5743.3330
1431.0000;5750.4310
1432.0000;5740.8360
1433.0000;5727.0990
1434.0000;5723.2780
1435.0000;5728.4030
1436.0000;5734.5900
1437.0000;5737.8230
1438.0000;5738.5090
1439.0000;5737.2740
1440.0000;5732.2170
1441.0000;5721.3530
1442.0000;5704.4370
1443.0000;5689.6660
1444.0000;5683.1270
1445.0000;5686.8730
1446.0000;5692.7000
1447.0000;5697.5200
1448.0000;5700.2220
1449.0000;5696.2000
1450.0000;5688.3740
1451.0000;5685.2100
1452.0000;5690.8150
1453.0000;5697.0560
1454.0000;5693.8370
1455.0000;5686.1150
1456.0000;5683.4170
1457.0000;5689.6100
1458.0000;5696.9940
1459.0000;5700.3130
1460.0000;5698.0440
1461.0000;5689.4080
1462.0000;5673.9270
1463.0000;5660.3790
1464.0000;5653.5670
1465.0000;5655.7930
1466.0000;5661.4700
1467.0000;5670.0300
1468.0000;5681.7000
1469.0000;5698.2780
1470.0000;5710.4120
1471.0000;5709.7130
1472.0000;5693.2850
1473.0000;5675.3550
1474.0000;5668.8600
1475.0000;5672.0400
1476.0000;5680.9840
1477.0000;5694.8020
1478.0000;5705.4730
1479.0000;5703.9790
1480.0000;5697.4680
1481.0000;5700.5040
1482.0000;5711.6180
1483.0000;5717.4650
1484.0000;5709.9540
1485.0000;5696.3910
1486.0000;5685.9030
1487.0000;5680.3540
1488.0000;5675.6350
1489.0000;5669.4170
1490.0000;5667.7050
1491.0000;5674.7820
1492.0000;5687.5570
1493.0000;5691.4640
1494.0000;5677.8850
1495.0000;5661.9550
1496.0000;5659.5550
1497.0000;5667.9290
1498.0000;5674.7270
1499.0000;5674.4020
1500.0000;5672.1390
1501.0000;5672.8520
1502.0000;5673.2390
1503.0000;5668.7500
1504.0000;5658.2570
1505.0000;5649.7490
1506.0000;5646.7460
1507.0000;5651.8650
1508.0000;5665.3340
1509.0000;5685.5210
1510.0000;5697.7880
1511.0000;5688.2370
1512.0000;5669.4420
1513.0000;5666.9200
1514.0000;5683.0450
1515.0000;5699.1410
1516.0000;5701.5230
1517.0000;5698.3420
1518.0000;5701.6830
1519.0000;5708.5780
1520.0000;5709.7020
1521.0000;5698.2480
1522.0000;5685.3880
1523.0000;5684.3350
1524.0000;5693.9180
1525.0000;5702.4340
1526.0000;5703.3700
1527.0000;5704.6380
1528.0000;5715.5590
1529.0000;5729.5740
1530.0000;5735.9380
1531.0000;5729.7830
1532.0000;5723.4560
1533.0000;5733.0620
1534.0000;5748.8960
1535.0000;5758.3600
1536.0000;5756.8860
1537.0000;5748.3990
1538.0000;5737.4460
1539.0000;5724.4530
1540.0000;5712.1430
1541.0000;5704.1730
1542.0000;5702.2830
1543.0000;5706.2490
1544.0000;5715.6670
1545.0000;5724.0720
1546.0000;5730.3540
1547.0000;5735.9160
1548.0000;5741.3810
1549.0000;5743.0050
1550.0000;5741.2360
1551.0000;5735.0070
1552.0000;5725.3370
1553.0000;5713.2110
1554.0000;5707.0750
1555.0000;5716.4550
1556.0000;5733.4880
1557.0000;5737.4010
1558.0000;5722.3910
1559.0000;5707.5710
1560.0000;5711.0170
1561.0000;5721.2090
1562.0000;5721.5210
1563.0000;5711.2080
1564.0000;5702.2980
1565.0000;5702.6120
1566.0000;5707.1320
1567.0000;5708.4630
1568.0000;5707.8140
1569.0000;5709.2850
1570.0000;5715.0910
1571.0000;5719.4900
1572.0000;5717.3990
1573.0000;5710.0530
1574.0000;5703.7030
1575.0000;5701.1040
1576.0000;5698.2180
1577.0000;5690.2220
1578.0000;5681.4950
1579.0000;5674.1660
1580.0000;5670.8550
1581.0000;5671.3710
1582.0000;5676.2150
1583.0000;5680.6890
1584.0000;5674.7470
1585.0000;5660.3810
1586.0000;5651.2320
1587.0000;5656.5610
1588.0000;5665.3720
1589.0000;5661.4980
1590.0000;5650.7870
1591.0000;5645.6830
1592.0000;5651.2980
1593.0000;5662.2570
1594.0000;5673.7230
1595.0000;5684.0870
1596.0000;5694.2900
1597.0000;5701.3500
1598.0000;5699.8980
1599.0000;5684.4880
1600.0000;5667.4370
1601.0000;5668.6240
1602.0000;5686.7080
1603.0000;5697.9470
1604.0000;5686.9290
1605.0000;5670.3760
1606.0000;5663.9540
1607.0000;5667.5710
1608.0000;5675.7030
1609.0000;5686.7720
1610.0000;5696.9250
1611.0000;5702.8360
1612.0000;5701.8320
1613.0000;5694.3310
1614.0000;5681.3010
1615.0000;5676.5280
1616.0000;5691.8650
1617.0000;5712.7890
1618.0000;5718.4750
1619.0000;5708.8270
1620.0000;5696.5390
1621.0000;5688.6010
1622.0000;5683.8710
1623.0000;5682.7940
1624.0000;5686.0970
1625.0000;5688.1680
1626.0000;5687.6810
1627.0000;5690.6230
1628.0000;5704.3940
1629.0000;5718.0180
1630.0000;5719.7850
1631.0000;5708.2920
1632.0000;5697.4470
1633.0000;5696.8470
1634.0000;5700.5540
1635.0000;5703.0780
1636.0000;5704.8960
1637.0000;5705.0210
1638.0000;5702.6550
1639.0000;5703.0100
1640.0000;5713.0460
1641.0000;5725.4530
1642.0000;5729.9070
1643.0000;5723.6500
1644.0000;5713.4710
1645.0000;5703.3050
1646.0000;5695.8180
1647.0000;5693.6450
1648.0000;5697.6950
1649.0000;5702.0700
1650.0000;5704.0630
1651.0000;5701.3630
1652.0000;5688.3980
1653.0000;5673.4340
1654.0000;5669.1360
1655.0000;5678.9960
1656.0000;5688.7420
1657.0000;5686.7010
1658.0000;5678.9230
1659.0000;5671.2420
1660.0000;5664.0780
1661.0000;5656.5620
1662.0000;5649.1460
1663.0000;5641.5540
1664.0000;5626.3180
1665.0000;5614.2930
1666.0000;5616.9700
1667.0000;5636.6800
1668.0000;5650.3060
1669.0000;5638.7810
1670.0000;5617.2270
1671.0000;5605.6420
1672.0000;5605.4750
1673.0000;5609.5280
1674.0000;5616.2710
1675.0000;5618.8470
1676.0000;5605.7230
1677.0000;5586.4300
1678.0000;5580.1900
1679.0000;5591.1120
1680.0000;5599.3390
1681.0000;5589.6810
1682.0000;5574.8380
1683.0000;5569.0940
1684.0000;5570.7260
1685.0000;5566.7010
1686.0000;5551.5860
1687.0000;5541.2380
1688.0000;5549.3050
1689.0000;5566.1740
1690.0000;5572.7740
1691.0000;5564.9430
1692.0000;5555.0940
1693.0000;5550.3210
1694.0000;5550.5820
1695.0000;5558.4560
1696.0000;5570.0010
1697.0000;5573.6380
1698.0000;5563.5930
1699.0000;5552.2000
1700.0000;5551.3430
1701.0000;5556.3400
1702.0000;5560.4590
1703.0000;5562.4850
1704.0000;5561.0220
1705.0000;5555.1190
1706.0000;5546.5290
1707.0000;5538.4300
1708.0000;5531.6780
1709.0000;5523.7590
1710.0000;5515.6950
1711.0000;5510.5970
1712.0000;5508.5580
1713.0000;5510.6200
1714.0000;5512.9010
1715.0000;5515.3600
1716.0000;5516.6340
1717.0000;5515.5740
1718.0000;5514.2380
1719.0000;5515.3340
1720.0000;5517.3070
1721.0000;5518.5260
1722.0000;5518.1320
1723.0000;5514.4950
1724.0000;5504.8600
1725.0000;5498.5370
1726.0000;5505.3260
1727.0000;5523.1870
1728.0000;5538.9280
1729.0000;5547.3290
1730.0000;5551.2880
1731.0000;5556.6400
1732.0000;5556.1730
1733.0000;5547.8740
1734.0000;5534.1350
1735.0000;5528.1610
1736.0000;5538.4000
1737.0000;5548.8830
1738.0000;5541.0560
1739.0000;5523.3510
1740.0000;5508.6510
1741.0000;5501.6410
1742.0000;5501.4510
1743.0000;5509.1040
1744.0000;5517.0350
1745.0000;5510.8100
1746.0000;5496.6360
1747.0000;5490.8550
1748.0000;5499.4860
1749.0000;5511.3620
1750.0000;5519.9420
1751.0000;5522.1040
1752.0000;5512.1940
1753.0000;5494.2320
1754.0000;5471.0680
1755.0000;5439.0540
1756.0000;5508.8910
1757.0000;5851.2780
1758.0000;6205.7960
1759.0000;6211.4600
1760.0000;5816.8030
1761.0000;5471.4690
1762.0000;5432.0200
1763.0000;5525.5370
1764.0000;5549.0950
1765.0000;5559.4590
1766.0000;5549.7390
1767.0000;5518.3100
1768.0000;5492.2920
1769.0000;5492.9860
1770.0000;5504.9850
1771.0000;5504.5330
1772.0000;5496.5240
1773.0000;5487.9170
1774.0000;5481.2460
1775.0000;5479.8920
1776.0000;5486.5380
1777.0000;5496.4920
1778.0000;5499.6070
1779.0000;5495.7350
1780.0000;5491.6080
1781.0000;5489.7640
1782.0000;5486.5000
1783.0000;5479.3980
1784.0000;5470.6260
1785.0000;5459.8590
1786.0000;5449.7180
1787.0000;5442.8150
1788.0000;5440.3360
1789.0000;5442.7390
1790.0000;5448.7710
1791.0000;5453.9800
1792.0000;5447.3960
1793.0000;5429.5710
1794.0000;5418.1670
1795.0000;5423.3750
1796.0000;5434.3620
1797.0000;5437.4810
1798.0000;5436.5910
1799.0000;5439.0420
1800.0000;5444.2070
1801.0000;5443.6280
1802.0000;5431.4220
1803.0000;5417.7260
1804.0000;5412.5580
1805.0000;5415.5080
1806.0000;5418.7430
1807.0000;5420.4560
1808.0000;5418.9930
1809.0000;5411.4240
1810.0000;5403.1580
1811.0000;5400.9140
1812.0000;5403.3150
1813.0000;5403.2350
1814.0000;5398.8060
1815.0000;5390.5010
1816.0000;5378.5110
1817.0000;5365.1370
1818.0000;5348.5150
1819.0000;5334.9740
1820.0000;5327.8580
1821.0000;5329.8350
1822.0000;5334.8280
1823.0000;5333.8300
1824.0000;5333.2290
1825.0000;5336.9540
1826.0000;5343.9780
1827.0000;5351.4420
1828.0000;5357.2580
1829.0000;5358.7820
1830.0000;5353.9570
1831.0000;5346.1830
1832.0000;5342.3340
1833.0000;5343.5030
1834.0000;5349.1510
1835.0000;5358.8710
1836.0000;5364.6190
1837.0000;5359.5140
1838.0000;5348.6130
1839.0000;5340.1770
1840.0000;5335.6480
1841.0000;5331.6530
1842.0000;5328.2800
1843.0000;5332.4820
1844.0000;5350.8180
1845.0000;5369.1500
1846.0000;5369.9390
1847.0000;5353.5120
1848.0000;5336.4380
1849.0000;5325.9690
1850.0000;5323.1300
1851.0000;5329.4630
1852.0000;5341.0650
1853.0000;5345.6420
1854.0000;5344.2230
1855.0000;5345.5290
1856.0000;5351.5300
1857.0000;5355.5400
1858.0000;5351.9550
1859.0000;5348.3330
1860.0000;5356.7310
1861.0000;5371.8240
1862.0000;5378.7520
1863.0000;5372.2390
1864.0000;5365.0190
1865.0000;5368.6210
1866.0000;5373.2060
1867.0000;5368.8060
1868.0000;5358.6900
1869.0000;5352.8260
1870.0000;5354.0530
1871.0000;5350.9150
1872.0000;5332.2860
1873.0000;5317.0320
1874.0000;5325.4900
1875.0000;5349.1970
1876.0000;5355.1880
1877.0000;5337.7450
1878.0000;5322.4790
1879.0000;5325.1620
1880.0000;5337.1480
1881.0000;5350.6620
1882.0000;5362.7680
1883.0000;5367.1520
1884.0000;5361.4770
1885.0000;5358.2180
1886.0000;5366.2880
1887.0000;5372.7990
1888.0000;5364.9870
1889.0000;5350.8840
1890.0000;5347.3630
1891.0000;5355.9990
1892.0000;5365.1070
1893.0000;5368.4990
1894.0000;5369.7700
1895.0000;5374.2520
1896.0000;5375.7060
1897.0000;5368.1780
1898.0000;5354.5710
1899.0000;5347.4660
1900.0000;5353.0070
1901.0000;5366.5150
1902.0000;5383.7480
1903.0000;5397.7920
1904.0000;5401.7860
1905.0000;5392.1790
1906.0000;5375.4650
1907.0000;5354.7080
1908.0000;5340.3650
1909.0000;5338.3830
1910.0000;5348.6660
1911.0000;5362.6600
1912.0000;5377.7610
1913.0000;5385.3600
1914.0000;5381.3980
1915.0000;5376.9080
1916.0000;5379.8250
1917.0000;5385.3190
1918.0000;5391.4400
1919.0000;5396.8400
1920.0000;5401.7250
1921.0000;5404.3000
1922.0000;5405.0350
1923.0000;5404.2680
1924.0000;5401.5740
1925.0000;5398.3940
1926.0000;5394.5590
1927.0000;5389.1450
1928.0000;5384.2830
1929.0000;5382.1030
1930.0000;5384.0520
1931.0000;5388.4920
1932.0000;5393.0040
1933.0000;5397.0810
1934.0000;5399.8810
1935.0000;5400.2300
1936.0000;5399.1990
1937.0000;5396.8280
1938.0000;5394.3370
1939.0000;5393.0630
1940.0000;5391.7760
1941.0000;5387.2940
1942.0000;5383.7400
1943.0000;5385.5370
1944.0000;5393.9830
1945.0000;5407.4190
1946.0000;5425.7140
1947.0000;5432.7210
1948.0000;5414.4590
1949.0000;5385.9150
1950.0000;5376.3680
1951.0000;5385.5680
1952.0000;5394.5830
1953.0000;5397.4870
1954.0000;5397.0920
1955.0000;5392.7430
1956.0000;5387.8630
1957.0000;5386.8940
1958.0000;5390.7500
1959.0000;5399.7350
1960.0000;5411.4630
1961.0000;5417.3530
1962.0000;5410.8880
1963.0000;5404.1000
1964.0000;5411.6840
1965.0000;5423.9730
1966.0000;5427.5690
1967.0000;5423.5210
1968.0000;5424.5230
1969.0000;5433.9600
1970.0000;5441.9460
1971.0000;5441.7390
1972.0000;5438.8390
1973.0000;5441.0730
1974.0000;5446.5540
1975.0000;5453.4700
1976.0000;5460.1850
1977.0000;5464.9020
1978.0000;5466.1430
1979.0000;5465.7000
1980.0000;5467.6720
1981.0000;5469.5840
1982.0000;5470.1100
1983.0000;5470.2160
1984.0000;5474.0500
1985.0000;5482.2810
1986.0000;5491.6590
1987.0000;5501.2160
1988.0000;5504.5020
1989.0000;5497.6820
1990.0000;5483.8970
1991.0000;5474.8910
1992.0000;5473.7040
1993.0000;5476.1580
1994.0000;5480.9400
1995.0000;5485.4430
1996.0000;5484.8600
1997.0000;5483.4410
1998.0000;5486.7060
1999.0000;5493.8640
2000.0000;5504.2010
2001.0000;5515.1600
2002.0000;5519.9820
2003.0000;5514.6480
2004.0000;5504.4130
2005.0000;5495.2700
2006.0000;5491.3070
2007.0000;5498.7720
2008.0000;5514.6180
2009.0000;5522.2710
2010.0000;5515.0540
2011.0000;5504.0990
2012.0000;5496.6820
2013.0000;5492.2280
2014.0000;5490.4490
2015.0000;5492.4640
2016.0000;5494.8680
2017.0000;5496.6580
2018.0000;5494.3690
2019.0000;5486.2840
2020.0000;5481.6390
2021.0000;5488.0710
2022.0000;5496.7360
2023.0000;5495.5480
2024.0000;5488.1490
2025.0000;5484.5200
2026.0000;5486.2790
2027.0000;5488.6050
2028.0000;5489.7980
2029.0000;5487.5870
2030.0000;5478.1660
2031.0000;5469.2610
2032.0000;5469.4240
2033.0000;5478.4050
2034.0000;5487.6020
2035.0000;5494.6570
2036.0000;5499.9510
2037.0000;5502.7120
2038.0000;5503.5080
2039.0000;5508.3850
2040.0000;5508.9730
2041.0000;5497.8010
2042.0000;5479.2840
2043.0000;5466.0420
2044.0000;5463.9870
2045.0000;5466.5600
2046.0000;5470.8530
2047.0000;5472.3000
2048.0000;5463.0620
2049.0000;5449.3980
2050.0000;5440.8260
2051.0000;5438.3070
2052.0000;5435.8450
2053.0000;5433.3100
2054.0000;5431.3230
2055.0000;5428.9010
2056.0000;5430.6000
2057.0000;5438.9060
2058.0000;5450.7000
2059.0000;5461.5600
2060.0000;5468.0360
2061.0000;5471.8070
2062.0000;5471.4290
2063.0000;5468.0850
2064.0000;5463.2940
2065.0000;5460.9000
2066.0000;5468.5610
2067.0000;5476.4690
2068.0000;5468.7930
2069.0000;5450.2310
2070.0000;5441.2870
2071.0000;5446.6860
2072.0000;5448.5290
2073.0000;5435.9880
2074.0000;5426.5860
2075.0000;5435.5650
2076.0000;5449.9410
2077.0000;5449.7510
2078.0000;5436.8680
2079.0000;5421.2270
2080.0000;5408.9350
2081.0000;5411.5490
2082.0000;5436.2960
2083.0000;5461.4060
2084.0000;5463.4410
2085.0000;5452.8080
2086.0000;5449.3950
2087.0000;5448.8970
2088.0000;5443.6360
2089.0000;5434.8960
2090.0000;5433.4370
2091.0000;5443.9510
2092.0000;5453.7270
2093.0000;5450.3290
2094.0000;5442.1240
2095.0000;5438.2500
2096.0000;5440.1760
2097.0000;5451.3840
2098.0000;5468.2280
2099.0000;5476.8880
2100.0000;5469.7340
2101.0000;5456.6510
2102.0000;5445.4820
2103.0000;5439.0990
2104.0000;5439.4850
2105.0000;5447.9420
2106.0000;5459.5890
2107.0000;5470.5750
2108.0000;5473.8390
2109.0000;5466.1050
2110.0000;5454.5320
2111.0000;5444.8710
2112.0000;5438.3000
2113.0000;5434.0390
2114.0000;5435.7820
2115.0000;5442.0370
2116.0000;5450.9470
2117.0000;5455.4660
2118.0000;5453.0950
2119.0000;5448.8690
2120.0000;5445.5360
2121.0000;5441.1630
2122.0000;5433.6510
2123.0000;5429.6490
2124.0000;5434.4630
2125.0000;5445.4130
2126.0000;5453.7660
2127.0000;5456.6190
2128.0000;5454.8720
2129.0000;5448.2320
2130.0000;5441.3190
2131.0000;5439.0210
2132.0000;5437.7120
2133.0000;5432.3040
2134.0000;5426.3040
2135.0000;5420.3530
2136.0000;5418.0530
2137.0000;5424.5390
2138.0000;5438.6100
2139.0000;5442.5530
2140.0000;5426.7520
2141.0000;5411.3570
2142.0000;5413.9610
2143.0000;5424.3270
2144.0000;5431.0640
2145.0000;5431.3540
2146.0000;5418.6750
2147.0000;5396.4590
2148.0000;5386.7150
2149.0000;5396.3820
2150.0000;5402.1230
2151.0000;5388.0110
2152.0000;5373.7000
2153.0000;5376.1700
2154.0000;5385.9480
2155.0000;5383.9790
2156.0000;5377.1180
2157.0000;5380.7810
2158.0000;5395.7190
2159.0000;5410.5820
2160.0000;5418.5700
2161.0000;5416.0880
2162.0000;5400.0010
2163.0000;5382.3720
2164.0000;5381.8020
2165.0000;5390.2380
2166.0000;5389.9870
2167.0000;5383.1690
2168.0000;5378.2090
2169.0000;5376.8110
2170.0000;5375.1600
2171.0000;5371.9910
2172.0000;5371.3810
2173.0000;5376.1720
2174.0000;5381.2680
2175.0000;5380.4060
2176.0000;5375.7680
2177.0000;5374.0080
2178.0000;5373.9280
2179.0000;5370.8030
2180.0000;5363.7870
2181.0000;5350.6690
2182.0000;5331.4350
2183.0000;5322.1610
2184.0000;5335.3410
2185.0000;5357.3580
2186.0000;5367.2600
2187.0000;5367.0890
2188.0000;5368.6890
2189.0000;5367.7560
2190.0000;5355.6770
2191.0000;5333.0800
2192.0000;5321.5360
2193.0000;5333.0270
2194.0000;5346.6210
2195.0000;5341.8240
2196.0000;5332.3960
2197.0000;5332.9010
2198.0000;5337.5590
2199.0000;5336.1290
2200.0000;5329.8200
2201.0000;5325.4260
2202.0000;5324.9640
2203.0000;5323.3660
2204.0000;5318.4170
2205.0000;5315.0890
2206.0000;5314.2070
2207.0000;5320.3880
2208.0000;5337.6140
2209.0000;5357.3960
2210.0000;5366.7670
2211.0000;5362.9330
2212.0000;5354.8440
2213.0000;5345.6690
2214.0000;5343.7270
2215.0000;5354.3960
2216.0000;5362.1290
2217.0000;5355.5650
2218.0000;5343.4380
2219.0000;5337.0400
2220.0000;5331.5080
2221.0000;5317.8910
2222.0000;5303.8110
2223.0000;5297.6260
2224.0000;5303.2640
2225.0000;5313.2390
2226.0000;5323.4540
2227.0000;5328.3980
2228.0000;5322.7540
2229.0000;5312.5920
2230.0000;5304.8350
2231.0000;5301.7480
2232.0000;5306.8920
2233.0000;5316.6200
2234.0000;5319.8180
2235.0000;5314.4730
2236.0000;5304.2820
2237.0000;5291.0350
2238.0000;5281.1440
2239.0000;5279.1870
2240.0000;5280.6860
2241.0000;5278.7560
2242.0000;5280.5530
2243.0000;5292.0780
2244.0000;5304.4790
2245.0000;5303.3440
2246.0000;5292.4240
2247.0000;5290.5380
2248.0000;5300.1850
2249.0000;5314.0310
2250.0000;5327.6380
2251.0000;5327.2550
2252.0000;5303.9630
2253.0000;5278.1340
2254.0000;5269.9760
2255.0000;5273.4930
2256.0000;5275.3550
2257.0000;5278.0110
2258.0000;5276.8550
2259.0000;5272.6150
2260.0000;5269.4440
2261.0000;5268.4390
2262.0000;5266.3190
2263.0000;5262.3410
2264.0000;5266.1610
2265.0000;5284.5510
2266.0000;5300.4150
2267.0000;5298.9520
2268.0000;5285.0840
2269.0000;5270.0170
2270.0000;5258.8380
2271.0000;5259.0830
2272.0000;5272.7820
2273.0000;5289.7800
2274.0000;5304.2930
2275.0000;5306.5330
2276.0000;5291.0140
2277.0000;5276.3610
2278.0000;5278.9570
2279.0000;5285.5210
2280.0000;5282.8230
2281.0000;5274.8090
2282.0000;5261.2740
2283.0000;5249.5800
2284.0000;5252.8050
2285.0000;5267.1100
2286.0000;5264.3600
2287.0000;5242.0090
2288.0000;5233.4140
2289.0000;5253.1260
2290.0000;5276.0340
2291.0000;5285.9490
2292.0000;5284.4470
2293.0000;5273.2890
2294.0000;5259.3960
2295.0000;5260.1910
2296.0000;5268.1810
2297.0000;5264.1680
2298.0000;5251.3640
2299.0000;5243.8570
2300.0000;5245.2020
2301.0000;5252.1020
2302.0000;5262.3320
2303.0000;5265.7890
2304.0000;5254.4410
2305.0000;5243.3510
2306.0000;5245.8250
2307.0000;5254.7440
2308.0000;5263.6690
2309.0000;5267.0610
2310.0000;5255.5690
2311.0000;5234.8500
2312.0000;5225.5880
2313.0000;5230.0000
2314.0000;5230.4600
2315.0000;5224.2100
2316.0000;5223.7020
2317.0000;5233.9000
2318.0000;5242.1240
2319.0000;5237.3190
2320.0000;5232.7730
2321.0000;5243.1480
2322.0000;5258.1350
2323.0000;5269.3280
2324.0000;5272.5730
2325.0000;5268.7260
2326.0000;5258.4330
2327.0000;5251.3590
2328.0000;5249.8080
2329.0000;5245.3230
2330.0000;5236.8700
2331.0000;5234.5010
2332.0000;5243.2330
2333.0000;5249.0350
2334.0000;5239.7520
2335.0000;5226.8000
2336.0000;5222.9030
2337.0000;5222.8300
2338.0000;5215.5780
2339.0000;5208.9540
2340.0000;5211.3450
2341.0000;5223.1540
2342.0000;5237.8480
2343.0000;5250.1690
2344.0000;5247.7430
2345.0000;5226.7050
2346.0000;5210.3820
2347.0000;5212.8340
2348.0000;5216.4650
2349.0000;5204.9110
2350.0000;5198.5000
2351.0000;5216.9090
2352.0000;5240.6410
2353.0000;5239.9610
2354.0000;5227.4940
2355.0000;5235.3330
2356.0000;5256.9510
2357.0000;5267.8960
2358.0000;5263.2850
2359.0000;5256.5050
2360.0000;5251.1040
2361.0000;5247.9620
2362.0000;5249.1470
2363.0000;5248.7520
2364.0000;5241.6080
2365.0000;5235.9810
2366.0000;5239.1260
2367.0000;5243.9470
2368.0000;5241.0320
2369.0000;5233.3810
2370.0000;5225.7080
2371.0000;5220.0330
2372.0000;5217.3440
2373.0000;5218.0930
2374.0000;5215.1150
2375.0000;5209.0580
2376.0000;5211.3060
2377.0000;5224.9030
2378.0000;5231.2090
2379.0000;5218.9490
2380.0000;5209.7580
2381.0000;5222.0620
2382.0000;5235.2780
2383.0000;5228.7230
2384.0000;5214.8300
2385.0000;5212.2500
2386.0000;5213.6070
2387.0000;5202.2810
2388.0000;5187.3320
2389.0000;5189.2420
2390.0000;5206.9510
2391.0000;5211.8760
2392.0000;5199.6860
2393.0000;5191.7650
2394.0000;5195.9610
2395.0000;5204.6650
2396.0000;5214.5900
2397.0000;5215.6280
2398.0000;5198.2130
2399.0000;5179.5250
2400.0000;5175.6020
2401.0000;5183.0690
2402.0000;5192.8540
2403.0000;5203.6370
2404.0000;5209.6910
2405.0000;5208.4580
2406.0000;5201.8200
2407.0000;5191.8870
2408.0000;5189.4570
2409.0000;5195.2290
2410.0000;5194.4610
2411.0000;5183.6300
2412.0000;5179.6710
2413.0000;5189.5680
2414.0000;5195.5960
2415.0000;5185.4500
2416.0000;5173.2460
2417.0000;5170.3420
2418.0000;5171.0000
2419.0000;5164.2800
2420.0000;5162.4230
2421.0000;5177.3020
2422.0000;5198.9190
2423.0000;5212.6610
2424.0000;5210.9490
2425.0000;5192.7720
2426.0000;5163.4040
2427.0000;5149.3930
2428.0000;5158.0750
2429.0000;5170.2100
2430.0000;5179.0840
2431.0000;5184.2340
2432.0000;5182.9190
2433.0000;5170.5740
2434.0000;5145.7890
2435.0000;5129.6440
2436.0000;5143.4180
2437.0000;5159.8210
2438.0000;5139.9480
2439.0000;5115.1470
2440.0000;5124.9340
2441.0000;5150.5940
2442.0000;5152.7120
2443.0000;5140.6540
2444.0000;5144.1820
2445.0000;5158.7680
2446.0000;5162.3410
2447.0000;5153.4130
2448.0000;5147.5230
2449.0000;5149.5830
2450.0000;5158.5800
2451.0000;5173.1910
2452.0000;5180.9340
2453.0000;5174.5310
2454.0000;5166.7420
2455.0000;5168.3210
2456.0000;5169.6840
2457.0000;5164.5660
2458.0000;5155.7000
2459.0000;5144.6690
2460.0000;5135.2260
2461.0000;5128.8150
2462.0000;5126.5010
2463.0000;5122.5410
2464.0000;5118.9250
2465.0000;5115.1140
2466.0000;5110.6790
2467.0000;5098.6880
2468.0000;5084.4330
2469.0000;5083.0070
2470.0000;5097.6980
2471.0000;5107.0600
2472.0000;5103.3900
2473.0000;5101.8320
2474.0000;5107.9140
2475.0000;5109.4720
2476.0000;5099.9700
2477.0000;5089.8690
2478.0000;5087.2660
2479.0000;5088.6150
2480.0000;5088.5530
2481.0000;5091.3010
2482.0000;5098.0420
2483.0000;5106.7230
2484.0000;5115.8860
2485.0000;5121.6460
2486.0000;5123.5510
2487.0000;5120.5220
2488.0000;5117.1800
2489.0000;5114.7380
2490.0000;5114.9450
2491.0000;5119.2050
2492.0000;5129.2850
2493.0000;5141.8490
2494.0000;5144.9380
2495.0000;5134.6640
2496.0000;5124.0740
2497.0000;5119.4740
2498.0000;5114.9550
2499.0000;5108.7160
2500.0000;5110.0330
2501.0000;5122.9560
2502.0000;5139.3580
2503.0000;5152.9290
2504.0000;5155.3290
2505.0000;5141.4700
2506.0000;5122.1980
2507.0000;5115.0510
2508.0000;5117.5460
2509.0000;5119.9430
2510.0000;5125.5360
2511.0000;5135.4390
2512.0000;5143.3810
2513.0000;5140.4920
2514.0000;5128.2220
2515.0000;5119.7090
2516.0000;5116.0200
2517.0000;5107.9440
2518.0000;5098.8760
2519.0000;5101.0290
2520.0000;5115.0450
2521.0000;5119.0340
2522.0000;5105.9740
2523.0000;5094.9130
2524.0000;5094.1600
2525.0000;5093.5800
2526.0000;5088.8660
2527.0000;5083.2860
2528.0000;5077.8150
2529.0000;5072.8540
2530.0000;5067.2520
2531.0000;5065.2210
2532.0000;5069.2960
2533.0000;5072.6540
2534.0000;5064.9920
2535.0000;5055.6480
2536.0000;5055.9180
2537.0000;5059.2940
2538.0000;5054.5880
2539.0000;5044.6720
2540.0000;5031.3890
2541.0000;5020.9910
2542.0000;5018.2450
2543.0000;5024.2700
2544.0000;5030.4130
2545.0000;5034.4420
2546.0000;5033.9640
2547.0000;5028.6880
2548.0000;5025.7010
2549.0000;5025.4700
2550.0000;5020.7050
2551.0000;5010.5730
2552.0000;4999.8010
2553.0000;4991.4350
2554.0000;4988.3850
2555.0000;4992.0360
2556.0000;4997.0530
2557.0000;4999.4440
2558.0000;5001.5580
2559.0000;5003.8870
2560.0000;5006.2660
2561.0000;5009.3950
2562.0000;5009.2820
2563.0000;5002.8760
2564.0000;4997.6540
2565.0000;5000.8750
2566.0000;5007.0790
2567.0000;5008.9490
2568.0000;5010.0530
2569.0000;5016.1650
2570.0000;5020.4660
2571.0000;5017.1730
2572.0000;5007.9530
2573.0000;4995.7500
2574.0000;4988.1720
2575.0000;4995.5680
2576.0000;5010.9340
2577.0000;5011.6690
2578.0000;5003.4340
2579.0000;5012.5200
2580.0000;5030.9660
2581.0000;5028.3220
2582.0000;5006.4310
2583.0000;4995.9910
2584.0000;5001.5190
2585.0000;5008.4740
2586.0000;5013.4560
2587.0000;5015.1530
2588.0000;5012.0610
2589.0000;5007.1310
2590.0000;5002.0940
2591.0000;4998.3430
2592.0000;4996.7680
2593.0000;4985.0730
2594.0000;4960.4060
2595.0000;4954.0140
2596.0000;4980.8230
2597.0000;5001.5210
2598.0000;4991.8680
2599.0000;4972.6770
2600.0000;4956.0210
2601.0000;4947.9200
2602.0000;4954.7690
2603.0000;4966.6790
2604.0000;4972.0160
2605.0000;4969.8950
2606.0000;4958.0260
2607.0000;4946.7550
2608.0000;4949.2160
2609.0000;4955.4990
2610.0000;4951.0880
2611.0000;4944.6840
2612.0000;4943.0480
2613.0000;4947.2230
2614.0000;4956.9530
2615.0000;4967.4730
2616.0000;4972.5500
2617.0000;4971.4130
2618.0000;4971.8560
2619.0000;4967.1890
2620.0000;4948.9080
2621.0000;4927.9950
2622.0000;4920.6130
2623.0000;4930.4290
2624.0000;4948.7850
2625.0000;4968.3750
2626.0000;4972.1120
2627.0000;4961.9060
2628.0000;4961.0580
2629.0000;4969.5850
2630.0000;4981.8300
2631.0000;4992.0330
2632.0000;4990.5290
2633.0000;4975.9620
2634.0000;4961.2170
2635.0000;4951.7000
2636.0000;4950.0590
2637.0000;4957.4430
2638.0000;4963.2260
2639.0000;4964.0540
2640.0000;4960.4040
2641.0000;4953.6420
2642.0000;4953.3130
2643.0000;4960.9010
2644.0000;4958.7110
2645.0000;4944.0740
2646.0000;4939.5850
2647.0000;4952.5160
2648.0000;4963.1370
2649.0000;4963.1190
2650.0000;4962.8750
2651.0000;4965.1690
2652.0000;4961.7480
2653.0000;4950.3720
2654.0000;4938.7210
2655.0000;4931.3540
2656.0000;4927.4640
2657.0000;4926.6330
2658.0000;4931.5740
2659.0000;4941.7720
2660.0000;4940.2490
2661.0000;4916.6710
2662.0000;4904.0220
2663.0000;4924.0210
2664.0000;4945.7450
2665.0000;4946.2970
2666.0000;4942.6110
2667.0000;4945.5270
2668.0000;4943.3100
2669.0000;4930.5130
2670.0000;4919.8950
2671.0000;4920.8300
2672.0000;4924.7660
2673.0000;4923.4190
2674.0000;4920.5770
2675.0000;4917.3570
2676.0000;4916.0490
2677.0000;4918.8340
2678.0000;4920.8200
2679.0000;4917.9430
2680.0000;4910.1310
2681.0000;4896.0710
2682.0000;4889.5610
2683.0000;4902.9780
2684.0000;4917.2180
2685.0000;4912.3250
2686.0000;4896.0000
2687.0000;4877.2000
2688.0000;4861.4900
2689.0000;4854.5950
2690.0000;4853.4240
2691.0000;4845.6230
2692.0000;4843.0260
2693.0000;4852.1110
2694.0000;4862.5490
2695.0000;4862.2070
2696.0000;4855.6300
2697.0000;4848.5190
2698.0000;4846.3860
2699.0000;4855.5300
2700.0000;4869.6910
2701.0000;4881.2490
2702.0000;4884.9420
2703.0000;4879.3030
2704.0000;4865.9070
2705.0000;4851.7980
2706.0000;4843.0670
2707.0000;4844.3780
2708.0000;4850.9280
2709.0000;4849.2940
2710.0000;4846.8130
2711.0000;4850.0980
2712.0000;4854.4470
2713.0000;4854.4710
2714.0000;4853.8650
2715.0000;4859.1720
2716.0000;4862.0750
2717.0000;4855.1100
2718.0000;4843.7660
2719.0000;4834.3290
2720.0000;4830.9240
2721.0000;4832.6370
2722.0000;4843.4530
2723.0000;4865.5050
2724.0000;4880.3750
2725.0000;4866.7130
2726.0000;4847.9470
2727.0000;4858.3970
2728.0000;4874.1410
2729.0000;4869.8300
2730.0000;4856.5670
2731.0000;4844.3490
2732.0000;4840.8110
2733.0000;4855.0120
2734.0000;4871.2700
2735.0000;4870.3840
2736.0000;4859.4780
2737.0000;4847.9960
2738.0000;4840.4150
2739.0000;4843.7910
2740.0000;4846.1750
2741.0000;4830.3150
2742.0000;4816.4550
2743.0000;4821.2260
2744.0000;4831.5440
2745.0000;4832.4830
2746.0000;4827.0480
2747.0000;4814.9150
2748.0000;4808.6480
2749.0000;4819.7960
2750.0000;4831.6290
2751.0000;4827.4730
2752.0000;4818.4400
2753.0000;4813.0220
2754.0000;4812.8900
2755.0000;4819.8940
2756.0000;4828.2970
2757.0000;4832.5080
2758.0000;4826.5510
2759.0000;4806.5450
2760.0000;4795.7200
2761.0000;4811.4790
2762.0000;4831.0810
2763.0000;4836.6810
2764.0000;4837.6590
2765.0000;4838.4500
2766.0000;4834.0960
2767.0000;4824.6670
2768.0000;4819.5630
2769.0000;4824.8190
2770.0000;4826.3080
2771.0000;4816.9210
2772.0000;4804.6280
2773.0000;4795.1000
2774.0000;4799.4960
2775.0000;4821.3930
2776.0000;4831.0210
2777.0000;4815.6850
2778.0000;4796.9180
2779.0000;4784.8610
2780.0000;4783.6770
2781.0000;4794.6930
2782.0000;4800.0810
2783.0000;4793.3450
2784.0000;4785.7360
2785.0000;4781.7680
2786.0000;4786.4270
2787.0000;4799.9310
2788.0000;4815.9400
2789.0000;4826.4860
2790.0000;4820.9900
2791.0000;4799.2740
2792.0000;4777.1260
2793.0000;4763.8960
2794.0000;4761.7970
2795.0000;4771.2760
2796.0000;4775.1770
2797.0000;4774.5040
2798.0000;4781.9750
2799.0000;4794.8960
2800.0000;4807.3820
2801.0000;4812.1550
2802.0000;4803.5870
2803.0000;4785.9850
2804.0000;4776.9710
2805.0000;4777.5680
2806.0000;4779.0840
2807.0000;4783.0120
2808.0000;4786.9180
2809.0000;4789.8370
2810.0000;4789.8750
2811.0000;4791.1980
2812.0000;4803.9980
2813.0000;4815.5090
2814.0000;4811.0570
2815.0000;4798.8440
2816.0000;4794.6250
2817.0000;4793.2890
2818.0000;4788.0810
2819.0000;4787.3380
2820.0000;4795.3270
2821.0000;4807.8540
2822.0000;4820.0580
2823.0000;4822.0340
2824.0000;4807.9850
2825.0000;4788.0580
2826.0000;4772.5160
2827.0000;4768.3600
2828.0000;4779.5020
2829.0000;4795.8570
2830.0000;4807.8410
2831.0000;4811.9730
2832.0000;4804.9480
2833.0000;4787.2500
2834.0000;4764.2230
2835.0000;4757.7390
2836.0000;4775.3220
2837.0000;4787.3370
2838.0000;4784.4480
2839.0000;4784.8080
2840.0000;4788.6550
2841.0000;4783.0530
2842.0000;4768.6380
2843.0000;4755.2980
2844.0000;4749.5870
2845.0000;4756.5720
2846.0000;4771.4180
2847.0000;4773.1370
2848.0000;4762.9390
2849.0000;4755.3670
2850.0000;4752.6620
2851.0000;4758.1960
2852.0000;4764.7450
2853.0000;4755.3910
2854.0000;4741.7830
2855.0000;4743.6250
2856.0000;4753.4000
2857.0000;4758.1300
2858.0000;4759.9880
2859.0000;4761.5150
2860.0000;4759.8210
2861.0000;4753.6430
2862.0000;4752.5070
2863.0000;4764.9720
2864.0000;4772.3540
2865.0000;4760.9910
2866.0000;4744.1560
2867.0000;4732.2780
2868.0000;4729.4140
2869.0000;4738.4610
2870.0000;4750.3230
2871.0000;4757.6860
2872.0000;4756.9180
2873.0000;4747.0270
2874.0000;4739.9430
2875.0000;4739.9770
2876.0000;4744.6380
2877.0000;4751.0640
2878.0000;4746.8650
2879.0000;4734.9540
2880.0000;4732.6360
2881.0000;4739.5450
2882.0000;4741.6740
2883.0000;4742.2900
2884.0000;4750.3750
2885.0000;4759.9060
2886.0000;4764.3870
2887.0000;4760.3560
2888.0000;4745.1630
2889.0000;4735.4000
2890.0000;4753.1900
2891.0000;4771.8040
2892.0000;4760.2100
2893.0000;4747.2110
2894.0000;4755.9020
2895.0000;4771.6930
2896.0000;4784.7790
2897.0000;4788.3270
2898.0000;4778.1280
2899.0000;4771.1120
2900.0000;4774.9520
2901.0000;4770.8170
2902.0000;4756.6470
2903.0000;4758.7620
2904.0000;4778.5010
2905.0000;4782.4000
2906.0000;4768.3230
2907.0000;4759.8710
2908.0000;4760.1510
2909.0000;4763.3760
2910.0000;4766.9610
2911.0000;4762.6220
2912.0000;4754.3150
2913.0000;4750.0690
2914.0000;4751.5240
2915.0000;4758.6790
2916.0000;4764.8550
2917.0000;4761.3650
2918.0000;4751.9380
2919.0000;4741.8250
2920.0000;4735.2330
2921.0000;4735.8180
2922.0000;4737.9250
2923.0000;4736.6570
2924.0000;4732.9310
2925.0000;4727.1010
2926.0000;4718.8800
2927.0000;4710.3870
2928.0000;4705.3320
2929.0000;4706.7510
2930.0000;4714.8120
2931.0000;4726.0120
2932.0000;4729.0420
2933.0000;4723.2170
2934.0000;4717.5220
2935.0000;4716.2430
2936.0000;4728.7780
2937.0000;4741.8710
2938.0000;4729.8910
2939.0000;4713.2510
2940.0000;4722.4550
2941.0000;4734.1940
2942.0000;4724.2700
2943.0000;4711.9380
2944.0000;4711.0300
2945.0000;4713.7550
2946.0000;4715.8680
2947.0000;4714.5430
2948.0000;4707.7500
2949.0000;4698.5350
2950.0000;4689.2630
2951.0000;4678.7340
2952.0000;4672.8830
2953.0000;4684.9120
2954.0000;4710.2390
2955.0000;4729.0300
2956.0000;4731.4090
2957.0000;4714.7790
2958.0000;4694.1360
2959.0000;4708.2430
2960.0000;4729.1640
2961.0000;4715.4270
2962.0000;4689.0960
2963.0000;4672.6960
2964.0000;4670.2010
2965.0000;4684.6510
2966.0000;4697.9800
2967.0000;4695.7710
2968.0000;4695.6090
2969.0000;4702.1890
2970.0000;4699.4910
2971.0000;4685.8360
2972.0000;4677.8750
2973.0000;4679.4800
2974.0000;4683.3080
2975.0000;4689.6320
2976.0000;4699.0080
2977.0000;4705.0850
2978.0000;4702.0850
2979.0000;4691.3510
2980.0000;4678.2490
2981.0000;4673.7390
2982.0000;4689.4490
2983.0000;4702.2920
2984.0000;4692.2910
2985.0000;4681.8730
2986.0000;4684.4220
2987.0000;4694.5700
2988.0000;4708.3250
2989.0000;4707.4700
2990.0000;4689.3270
2991.0000;4676.5990
2992.0000;4675.9020
2993.0000;4683.7780
2994.0000;4696.9310
2995.0000;4703.8830
2996.0000;4703.0210
2997.0000;4698.5700
2998.0000;4693.3880
2999.0000;4695.0760
3000.0000;4695.5390
3001.0000;4686.2300
3002.0000;4685.2240
3003.0000;4702.4330
3004.0000;4709.9710
3005.0000;4696.1270
3006.0000;4686.1060
3007.0000;4685.7550
3008.0000;4676.2570
3009.0000;4660.3650
3010.0000;4651.3790
3011.0000;4651.5520
3012.0000;4650.8380
3013.0000;4652.2070
3014.0000;4653.9160
3015.0000;4659.8610
3016.0000;4673.1060
3017.0000;4687.3440
3018.0000;4698.5200
3019.0000;4694.4770
3020.0000;4671.4230
3021.0000;4659.6200
3022.0000;4672.5320
3023.0000;4679.0790
3024.0000;4672.2780
3025.0000;4662.0050
3026.0000;4651.2410
3027.0000;4639.9930
3028.0000;4636.6840
3029.0000;4648.8480
3030.0000;4666.6760
3031.0000;4673.1630
3032.0000;4668.4200
3033.0000;4656.6890
3034.0000;4643.3450
3035.0000;4635.0240
3036.0000;4642.5600
3037.0000;4667.1490
3038.0000;4682.0430
3039.0000;4678.2700
3040.0000;4680.2320
3041.0000;4684.4890
3042.0000;4670.9920
3043.0000;4649.1130
3044.0000;4646.2870
3045.0000;4652.5260
3046.0000;4642.8920
3047.0000;4632.9730
3048.0000;4634.9170
3049.0000;4633.9230
3050.0000;4619.6500
3051.0000;4618.8720
3052.0000;4639.0000
3053.0000;4636.4710
3054.0000;4605.8040
3055.0000;4584.1210
3056.0000;4583.8320
3057.0000;4601.4860
3058.0000;4625.3270
3059.0000;4626.3690
3060.0000;4614.5100
3061.0000;4613.0610
3062.0000;4615.2800
3063.0000;4618.2570
3064.0000;4619.9380
3065.0000;4618.2180
3066.0000;4617.6110
3067.0000;4618.4790
3068.0000;4609.2240
3069.0000;4592.5860
3070.0000;4586.9530
3071.0000;4592.7780
3072.0000;4596.3270
3073.0000;4596.8000
3074.0000;4590.1820
3075.0000;4587.4050
3076.0000;4601.1930
3077.0000;4609.6660
3078.0000;4597.9610
3079.0000;4601.6160
3080.0000;4631.5060
3081.0000;4647.3140
3082.0000;4637.3520
3083.0000;4616.5540
3084.0000;4595.5810
3085.0000;4593.4350
3086.0000;4608.4020
3087.0000;4622.5280
3088.0000;4632.4580
3089.0000;4631.9480
3090.0000;4627.3420
3091.0000;4626.4100
3092.0000;4633.1780
3093.0000;4646.2870
3094.0000;4633.7480
3095.0000;4600.1400
3096.0000;4599.6340
3097.0000;4627.7520
3098.0000;4631.5940
3099.0000;4620.0770
3100.0000;4617.4000
3101.0000;4617.4790
3102.0000;4615.7010
3103.0000;4620.2230
3104.0000;4634.0570
3105.0000;4643.2990
3106.0000;4642.1970
3107.0000;4651.3880
3108.0000;4664.6600
3109.0000;4647.5660
3110.0000;4615.4650
3111.0000;4616.9690
3112.0000;4632.7590
3113.0000;4623.5310
3114.0000;4609.7200
3115.0000;4606.9250
3116.0000;4602.1320
3117.0000;4590.7230
3118.0000;4586.8310
3119.0000;4594.1140
3120.0000;4601.7300
3121.0000;4605.4440
3122.0000;4601.0200
3123.0000;4594.1900
3124.0000;4601.5640
3125.0000;4605.2680
3126.0000;4584.8010
3127.0000;4568.9210
3128.0000;4576.8340
3129.0000;4583.5680
3130.0000;4579.0300
3131.0000;4573.6790
3132.0000;4570.5960
3133.0000;4573.8300
3134.0000;4577.5940
3135.0000;4565.4040
3136.0000;4551.9410
3137.0000;4554.9490
3138.0000;4566.2550
3139.0000;4576.9050
3140.0000;4580.4090
3141.0000;4573.5080
3142.0000;4574.6310
3143.0000;4584.2880
3144.0000;4583.0020
3145.0000;4574.0050
3146.0000;4575.1610
3147.0000;4575.7620
3148.0000;4558.2040
3149.0000;4546.2720
3150.0000;4556.8050
3151.0000;4570.4270
3152.0000;4576.5320
3153.0000;4584.5300
3154.0000;4591.3250
3155.0000;4586.4480
3156.0000;4571.7440
3157.0000;4557.7510
3158.0000;4549.6100
3159.0000;4549.8040
3160.0000;4549.6430
3161.0000;4538.6970
3162.0000;4536.7440
3163.0000;4549.7410
3164.0000;4555.9360
3165.0000;4550.8960
3166.0000;4544.0430
3167.0000;4541.4310
3168.0000;4553.0790
3169.0000;4568.3400
3170.0000;4573.4360
3171.0000;4571.4500
3172.0000;4566.7420
3173.0000;4565.2630
3174.0000;4568.5360
3175.0000;4558.9220
3176.0000;4541.0790
3177.0000;4539.5460
3178.0000;4549.3700
3179.0000;4548.3840
3180.0000;4547.3240
3181.0000;4554.7310
3182.0000;4561.2210
3183.0000;4561.5310
3184.0000;4565.9510
3185.0000;4573.5360
3186.0000;4567.3180
3187.0000;4552.6600
3188.0000;4551.0370
3189.0000;4560.6580
3190.0000;4572.7230
3191.0000;4583.5590
3192.0000;4588.3210
3193.0000;4585.9200
3194.0000;4577.7170
3195.0000;4572.7070
3196.0000;4571.7920
3197.0000;4563.4570
3198.0000;4554.1910
3199.0000;4552.1520
3200.0000;4559.8020
3201.0000;4574.2690
3202.0000;4586.4130
3203.0000;4588.7570
3204.0000;4588.1730
3205.0000;4584.7290
3206.0000;4572.4110
3207.0000;4557.5820
3208.0000;4552.7980
3209.0000;4551.5150
3210.0000;4538.2500
3211.0000;4528.9070
3212.0000;4532.4060
3213.0000;4536.1600
3214.0000;4535.6200
3215.0000;4535.0910
3216.0000;4536.2880
3217.0000;4542.1180
3218.0000;4550.5420
3219.0000;4558.8100
3220.0000;4562.9720
3221.0000;4561.9100
3222.0000;4543.8960
3223.0000;4512.2590
3224.0000;4507.0580
3225.0000;4525.3960
3226.0000;4513.9970
3227.0000;4492.8550
3228.0000;4500.1670
3229.0000;4507.7980
3230.0000;4490.8550
3231.0000;4480.4510
3232.0000;4488.1310
3233.0000;4491.4400
3234.0000;4490.0190
3235.0000;4498.9260
3236.0000;4508.9050
3237.0000;4506.2350
3238.0000;4493.3160
3239.0000;4476.6780
3240.0000;4470.4250
3241.0000;4481.2370
3242.0000;4488.5890
3243.0000;4488.1460
3244.0000;4486.2110
3245.0000;4487.7860
3246.0000;4504.8810
3247.0000;4514.8690
3248.0000;4500.2140
3249.0000;4489.5540
3250.0000;4496.7240
3251.0000;4512.0070
3252.0000;4527.8860
3253.0000;4532.4370
3254.0000;4526.8320
3255.0000;4521.5390
3256.0000;4524.5800
3257.0000;4542.9870
3258.0000;4549.2210
3259.0000;4534.5530
3260.0000;4526.6300
3261.0000;4528.0340
3262.0000;4528.5670
3263.0000;4523.0550
3264.0000;4501.6770
3265.0000;4490.7140
3266.0000;4506.1080
3267.0000;4522.8750
3268.0000;4527.5660
3269.0000;4512.0960
3270.0000;4488.0890
3271.0000;4487.6270
3272.0000;4503.7110
3273.0000;4519.9800
3274.0000;4529.6470
3275.0000;4526.5010
3276.0000;4526.0260
3277.0000;4526.3870
3278.0000;4504.0370
3279.0000;4478.8000
3280.0000;4485.3830
3281.0000;4505.6590
3282.0000;4515.5700
3283.0000;4515.6680
3284.0000;4506.7260
3285.0000;4507.4250
3286.0000;4515.8080
3287.0000;4514.8570
3288.0000;4507.1380
3289.0000;4499.3380
3290.0000;4489.7730
3291.0000;4479.6170
3292.0000;4479.5450
3293.0000;4490.7580
3294.0000;4500.2420
3295.0000;4500.9020
3296.0000;4488.2340
3297.0000;4472.6550
3298.0000;4467.8400
3299.0000;4464.3220
3300.0000;4458.8720
3301.0000;4453.8830
3302.0000;4452.0380
3303.0000;4454.4620
3304.0000;4458.1960
3305.0000;4457.1770
3306.0000;4452.5060
3307.0000;4445.9850
3308.0000;4446.9580
3309.0000;4455.5590
3310.0000;4456.8020
3311.0000;4454.1000
3312.0000;4460.3330
3313.0000;4461.6970
3314.0000;4448.9410
3315.0000;4436.7720
3316.0000;4433.3760
3317.0000;4439.5240
3318.0000;4450.1050
3319.0000;4449.4720
3320.0000;4439.1250
3321.0000;4423.8140
3322.0000;4424.2750
3323.0000;4448.9060
3324.0000;4465.9830
3325.0000;4465.7260
3326.0000;4454.8860
3327.0000;4441.3040
3328.0000;4442.3670
3329.0000;4447.2400
3330.0000;4447.3810
3331.0000;4433.6430
3332.0000;4413.7430
3333.0000;4421.4790
3334.0000;4442.3660
3335.0000;4435.7460
3336.0000;4425.6660
3337.0000;4429.8000
3338.0000;4442.3360
3339.0000;4457.4550
3340.0000;4464.5050
3341.0000;4457.8230
3342.0000;4435.9220
3343.0000;4426.0450
3344.0000;4452.1090
3345.0000;4474.9250
3346.0000;4473.6830
3347.0000;4449.4790
3348.0000;4420.5430
3349.0000;4431.6260
3350.0000;4457.4220
3351.0000;4462.5680
3352.0000;4459.0420
3353.0000;4453.1570
3354.0000;4463.2190
3355.0000;4483.1640
3356.0000;4490.6140
3357.0000;4487.4120
3358.0000;4481.4810
3359.0000;4480.7560
3360.0000;4488.4850
3361.0000;4486.6180
3362.0000;4474.9520
3363.0000;4462.3260
3364.0000;4458.2600
3365.0000;4470.4070
3366.0000;4480.9500
3367.0000;4478.6320
3368.0000;4465.2500
3369.0000;4448.8480
3370.0000;4448.3760
3371.0000;4454.7900
3372.0000;4451.0750
3373.0000;4450.4200
3374.0000;4456.3130
3375.0000;4459.3960
3376.0000;4458.0570
3377.0000;4455.7500
3378.0000;4453.9320
3379.0000;4455.7450
3380.0000;4447.1020
3381.0000;4427.4070
3382.0000;4422.5250
3383.0000;4435.5960
3384.0000;4450.3400
3385.0000;4460.7360
3386.0000;4458.9020
3387.0000;4468.8450
3388.0000;4493.8110
3389.0000;4495.7000
3390.0000;4476.4490
3391.0000;4464.1140
3392.0000;4455.3410
3393.0000;4447.6110
3394.0000;4457.9400
3395.0000;4483.5690
3396.0000;4487.7690
3397.0000;4473.5780
3398.0000;4469.6860
3399.0000;4460.1350
3400.0000;4438.8320
3401.0000;4432.6290
3402.0000;4445.9420
3403.0000;4447.1800
3404.0000;4441.4230
3405.0000;4443.3890
3406.0000;4443.1360
3407.0000;4436.0560
3408.0000;4433.0580
3409.0000;4434.2880
3410.0000;4426.1110
3411.0000;4420.8970
3412.0000;4433.1460
3413.0000;4442.8690
3414.0000;4439.3780
3415.0000;4441.7450
3416.0000;4444.8330
3417.0000;4427.6480
3418.0000;4410.6060
3419.0000;4414.4090
3420.0000;4422.9390
3421.0000;4428.9370
3422.0000;4439.6520
3423.0000;4449.3510
3424.0000;4451.9170
3425.0000;4450.5550
3426.0000;4451.1220
3427.0000;4456.2240
3428.0000;4464.3090
3429.0000;4465.6910
3430.0000;4466.9210
3431.0000;4481.9100
3432.0000;4489.7770
3433.0000;4479.5180
3434.0000;4458.7100
3435.0000;4437.6800
3436.0000;4430.4910
3437.0000;4433.3070
3438.0000;4433.4500
3439.0000;4432.8730
3440.0000;4430.4180
3441.0000;4424.2340
3442.0000;4419.9580
3443.0000;4424.9660
3444.0000;4434.9340
3445.0000;4443.9410
3446.0000;4455.6110
3447.0000;4465.2870
3448.0000;4467.7710
3449.0000;4467.9660
3450.0000;4477.9330
3451.0000;4476.5960
3452.0000;4458.6160
3453.0000;4443.9880
3454.0000;4438.9000
3455.0000;4441.4420
3456.0000;4441.7460
3457.0000;4429.6210
3458.0000;4417.9010
3459.0000;4413.7140
3460.0000;4417.5480
3461.0000;4429.4140
3462.0000;4444.7620
3463.0000;4445.5500
3464.0000;4428.5530
3465.0000;4430.5070
3466.0000;4445.5000
3467.0000;4443.9270
3468.0000;4439.0980
3469.0000;4440.8980
3470.0000;4436.8060
3471.0000;4427.8880
3472.0000;4424.1530
3473.0000;4427.4580
3474.0000;4435.9570
3475.0000;4437.4570
3476.0000;4428.5060
3477.0000;4429.9110
3478.0000;4435.7150
3479.0000;4426.5570
3480.0000;4425.2300
3481.0000;4443.6340
3482.0000;4451.1680
3483.0000;4444.5890
3484.0000;4446.3100
3485.0000;4443.9130
3486.0000;4427.9390
3487.0000;4410.6890
3488.0000;4400.2000
3489.0000;4389.4040
3490.0000;4391.6410
3491.0000;4416.8760
3492.0000;4436.4020
3493.0000;4432.1460
3494.0000;4419.0710
3495.0000;4406.7000
3496.0000;4410.7990
3497.0000;4418.1790
3498.0000;4416.3410
3499.0000;4420.2550
3500.0000;4429.6220
3501.0000;4435.2000
3502.0000;4435.0640
3503.0000;4430.7370
3504.0000;4429.7000
3505.0000;4433.0420
3506.0000;4427.1820
3507.0000;4414.5260
3508.0000;4400.8770
3509.0000;4398.3850
3510.0000;4410.1320
3511.0000;4413.0000
3512.0000;4405.2700
3513.0000;4396.5710
3514.0000;4385.1520
3515.0000;4373.8700
3516.0000;4379.7630
3517.0000;4399.7700
3518.0000;4408.7230
3519.0000;4411.9390
3520.0000;4416.8950
3521.0000;4421.6870
3522.0000;4425.3220
3523.0000;4429.1750
3524.0000;4428.6870
3525.0000;4420.9470
3526.0000;4423.2040
3527.0000;4437.4140
3528.0000;4440.4210
3529.0000;4432.2190
3530.0000;4421.5880
3531.0000;4413.2380
3532.0000;4410.7480
3533.0000;4404.5970
3534.0000;4399.5980
3535.0000;4401.3370
3536.0000;4414.3740
3537.0000;4434.7380
3538.0000;4431.6840
3539.0000;4410.9000
3540.0000;4410.5410
3541.0000;4414.1630
3542.0000;4409.6060
3543.0000;4401.5650
3544.0000;4390.6420
3545.0000;4373.3700
3546.0000;4363.6460
3547.0000;4370.0510
3548.0000;4365.8330
3549.0000;4349.8080
3550.0000;4341.1840
3551.0000;4343.7920
3552.0000;4355.5080
3553.0000;4357.4570
3554.0000;4346.6090
3555.0000;4344.0850
3556.0000;4348.5470
3557.0000;4355.1460
3558.0000;4358.9890
3559.0000;4355.7710
3560.0000;4340.9440
3561.0000;4331.9080
3562.0000;4349.7650
3563.0000;4358.5540
3564.0000;4345.6700
3565.0000;4336.9360
3566.0000;4335.8760
3567.0000;4341.2010
3568.0000;4351.5200
3569.0000;4361.9150
3570.0000;4363.7090
3571.0000;4363.1420
3572.0000;4376.7830
3573.0000;4378.7860
3574.0000;4360.4270
3575.0000;4346.0860
3576.0000;4341.3160
3577.0000;4344.1100
3578.0000;4344.7580
3579.0000;4338.7890
3580.0000;4342.4020
3581.0000;4351.4850
3582.0000;4354.5860
3583.0000;4357.6730
3584.0000;4359.8550
3585.0000;4340.7590
3586.0000;4315.1880
3587.0000;4311.6550
3588.0000;4319.9620
3589.0000;4329.4970
3590.0000;4333.5980
3591.0000;4326.8130
3592.0000;4306.4750
3593.0000;4306.0820
3594.0000;4335.5600
3595.0000;4347.1220
3596.0000;4342.0910
3597.0000;4339.3830
3598.0000;4356.7280
3599.0000;4392.7530
3600.0000;4401.2850
3601.0000;4385.4820
3602.0000;4374.1400
3603.0000;4367.6640
3604.0000;4368.9850
3605.0000;4370.4380
3606.0000;4369.6330
3607.0000;4363.2650
3608.0000;4359.3360
3609.0000;4361.6220
3610.0000;4366.1850
3611.0000;4370.2730
3612.0000;4370.1910
3613.0000;4365.8100
3614.0000;4362.1770
3615.0000;4377.8110
3616.0000;4385.5420
3617.0000;4357.8750
3618.0000;4346.1750
3619.0000;4359.8000
3620.0000;4354.4470
3621.0000;4347.3300
3622.0000;4354.0860
3623.0000;4354.7180
3624.0000;4348.9180
3625.0000;4352.0930
3626.0000;4359.2090
3627.0000;4365.0590
3628.0000;4374.7110
3629.0000;4379.8000
3630.0000;4364.3360
3631.0000;4347.7000
3632.0000;4347.5280
3633.0000;4367.8970
3634.0000;4392.6310
3635.0000;4391.4740
3636.0000;4379.4150
3637.0000;4371.1840
3638.0000;4372.6670
3639.0000;4375.4680
3640.0000;4359.5510
3641.0000;4357.6960
3642.0000;4376.0320
3643.0000;4368.8970
3644.0000;4353.9620
3645.0000;4361.7810
3646.0000;4355.3050
3647.0000;4335.3020
3648.0000;4344.3720
3649.0000;4365.3330
3650.0000;4372.6770
3651.0000;4367.1590
3652.0000;4352.7890
3653.0000;4346.8340
3654.0000;4343.7730
3655.0000;4338.4150
3656.0000;4328.1560
3657.0000;4320.2170
3658.0000;4325.3490
3659.0000;4332.4030
3660.0000;4332.3000
3661.0000;4329.3760
3662.0000;4321.1650
3663.0000;4305.6270
3664.0000;4298.9480
3665.0000;4304.7150
3666.0000;4300.5900
3667.0000;4302.4360
3668.0000;4324.1210
3669.0000;4342.6190
3670.0000;4344.6350
3671.0000;4331.6780
3672.0000;4309.8850
3673.0000;4292.8620
3674.0000;4283.3810
3675.0000;4286.9200
3676.0000;4297.9390
3677.0000;4310.5350
3678.0000;4317.4530
3679.0000;4327.6230
3680.0000;4332.1000
3681.0000;4323.9100
3682.0000;4319.8920
3683.0000;4322.8810
3684.0000;4314.1080
3685.0000;4305.0460
3686.0000;4306.2860
3687.0000;4308.6710
3688.0000;4312.4820
3689.0000;4323.0320
3690.0000;4324.0210
3691.0000;4310.5850
3692.0000;4313.1620
3693.0000;4320.0020
3694.0000;4307.7200
3695.0000;4305.6740
3696.0000;4317.0560
3697.0000;4310.9740
3698.0000;4300.7300
3699.0000;4301.0060
3700.0000;4306.5380
3701.0000;4315.5900
3702.0000;4324.4250
3703.0000;4334.9290
3704.0000;4344.4830
3705.0000;4345.2670
3706.0000;4334.1320
3707.0000;4315.1680
3708.0000;4317.3180
3709.0000;4338.1250
3710.0000;4332.4470
3711.0000;4320.3580
3712.0000;4321.7900
3713.0000;4331.0790
3714.0000;4343.6200
3715.0000;4352.1060
3716.0000;4350.0830
3717.0000;4336.4840
3718.0000;4318.0250
3719.0000;4307.0080
3720.0000;4312.6270
3721.0000;4321.7500
3722.0000;4327.2650
3723.0000;4325.9060
3724.0000;4320.5440
3725.0000;4316.5960
3726.0000;4321.3560
3727.0000;4323.8380
3728.0000;4308.0680
3729.0000;4302.1970
3730.0000;4313.7240
3731.0000;4329.3600
3732.0000;4332.8410
3733.0000;4314.7010
3734.0000;4295.9190
3735.0000;4289.0080
3736.0000;4301.0110
3737.0000;4308.9500
3738.0000;4300.9340
3739.0000;4284.2160
3740.0000;4272.3900
3741.0000;4277.3280
3742.0000;4285.6820
3743.0000;4292.7190
3744.0000;4296.3130
3745.0000;4294.5000
3746.0000;4288.4920
3747.0000;4282.1290
3748.0000;4282.0240
3749.0000;4290.9100
3750.0000;4289.5430
3751.0000;4278.3500
3752.0000;4270.5850
3753.0000;4268.4370
3754.0000;4273.9280
3755.0000;4286.7430
3756.0000;4295.4210
3757.0000;4289.3980
3758.0000;4265.4070
3759.0000;4243.8580
3760.0000;4259.9170
3761.0000;4283.2690
3762.0000;4293.9700
3763.0000;4307.6220
3764.0000;4308.1480
3765.0000;4290.7990
3766.0000;4298.2030
3767.0000;4316.2000
3768.0000;4296.5860
3769.0000;4280.4920
3770.0000;4286.1570
3771.0000;4290.3130
3772.0000;4303.9370
3773.0000;4329.1060
3774.0000;4340.3100
3775.0000;4338.7770
3776.0000;4346.2910
3777.0000;4351.0680
3778.0000;4350.4750
3779.0000;4351.0100
3780.0000;4349.1360
3781.0000;4344.3010
3782.0000;4344.3690
3783.0000;4341.9350
3784.0000;4324.1820
3785.0000;4319.9750
3786.0000;4333.7940
3787.0000;4342.9670
3788.0000;4341.1990
3789.0000;4327.5190
3790.0000;4319.9870
3791.0000;4314.0540
3792.0000;4301.1720
3793.0000;4328.4060
3794.0000;4372.9650
3795.0000;4359.6550
3796.0000;4341.1970
3797.0000;4343.5830
3798.0000;4329.6280
3799.0000;4314.6310
3800.0000;4313.2930
3801.0000;4307.5140
3802.0000;4299.2210
3803.0000;4293.6460
3804.0000;4296.9860
3805.0000;4303.7180
3806.0000;4290.4790
3807.0000;4281.3750
3808.0000;4291.5360
3809.0000;4296.7380
3810.0000;4297.2570
3811.0000;4296.9340
3812.0000;4294.1120
3813.0000;4288.4580
3814.0000;4279.1690
3815.0000;4274.9010
3816.0000;4276.0250
3817.0000;4265.8490
3818.0000;4253.8350
3819.0000;4248.5690
3820.0000;4246.9690
3821.0000;4242.5420
3822.0000;4225.6830
3823.0000;4239.7370
3824.0000;4272.5880
3825.0000;4266.0110
3826.0000;4240.6820
3827.0000;4220.4680
3828.0000;4234.9340
3829.0000;4247.8950
3830.0000;4224.9980
3831.0000;4211.8430
3832.0000;4213.7360
3833.0000;4221.8760
3834.0000;4222.3190
3835.0000;4212.8310
3836.0000;4202.4300
3837.0000;4206.8730
3838.0000;4226.9740
3839.0000;4238.0330
3840.0000;4228.2310
3841.0000;4199.7570
3842.0000;4196.7880
3843.0000;4215.0090
3844.0000;4227.9360
3845.0000;4230.6750
3846.0000;4222.0880
3847.0000;4214.2420
3848.0000;4210.1380
3849.0000;4214.1310
3850.0000;4227.5900
3851.0000;4241.5810
3852.0000;4247.0620
3853.0000;4251.8040
3854.0000;4247.2540
3855.0000;4230.6600
3856.0000;4232.4340
3857.0000;4249.6940
3858.0000;4258.6950
3859.0000;4252.5680
3860.0000;4237.3000
3861.0000;4240.8230
3862.0000;4242.1350
3863.0000;4232.6370
3864.0000;4232.2430
3865.0000;4249.9340
3866.0000;4281.2810
3867.0000;4279.1010
3868.0000;4263.8190
3869.0000;4280.4590
3870.0000;4271.1050
3871.0000;4248.0660
3872.0000;4265.3300
3873.0000;4262.5590
3874.0000;4232.1550
3875.0000;4225.8320
3876.0000;4221.9320
3877.0000;4212.1530
3878.0000;4222.3150
3879.0000;4235.4490
3880.0000;4233.1230
3881.0000;4230.5520
3882.0000;4226.7590
3883.0000;4220.5050
3884.0000;4214.0460
3885.0000;4208.1380
3886.0000;4200.8800
3887.0000;4197.0050
3888.0000;4199.6070
3889.0000;4210.1340
3890.0000;4208.7750
3891.0000;4191.7670
3892.0000;4185.1370
3893.0000;4187.3340
3894.0000;4193.6850
3895.0000;4200.0880
3896.0000;4212.0920
3897.0000;4230.9600
3898.0000;4208.4810
3899.0000;4171.9870
3900.0000;4176.6650
3901.0000;4179.6020
3902.0000;4176.3060
3903.0000;4178.3270
3904.0000;4181.7850
3905.0000;4181.8380
3906.0000;4172.1220
3907.0000;4157.4860
3908.0000;4149.6650
3909.0000;4167.3800
3910.0000;4183.4740
3911.0000;4176.7900
3912.0000;4171.1930
3913.0000;4168.1370
3914.0000;4168.8210
3915.0000;4165.3130
3916.0000;4162.6560
3917.0000;4167.8710
3918.0000;4187.7120
3919.0000;4203.7340
3920.0000;4188.4390
3921.0000;4178.4250
3922.0000;4185.1520
3923.0000;4201.4310
3924.0000;4204.2160
3925.0000;4193.5370
3926.0000;4206.6690
3927.0000;4207.6040
3928.0000;4186.7190
3929.0000;4177.4980
3930.0000;4174.4520
3931.0000;4173.8390
3932.0000;4179.6870
3933.0000;4185.6570
3934.0000;4185.1860
3935.0000;4182.6460
3936.0000;4177.7210
3937.0000;4172.7240
3938.0000;4183.2160
3939.0000;4195.4550
3940.0000;4188.5580
3941.0000;4178.7030
3942.0000;4181.6630
3943.0000;4210.0180
3944.0000;4211.3490
3945.0000;4185.7810
3946.0000;4169.8510
3947.0000;4165.8600
3948.0000;4171.8210
3949.0000;4171.9000
3950.0000;4163.8290
3951.0000;4150.4930
3952.0000;4142.5100
3953.0000;4138.5830
3954.0000;4139.2370
3955.0000;4148.2850
3956.0000;4146.8540
3957.0000;4128.3710
3958.0000;4115.7590
3959.0000;4107.3370
3960.0000;4100.5810
3961.0000;4084.7370
3962.0000;4083.3930
3963.0000;4105.7380
3964.0000;4114.4790
3965.0000;4104.7080
3966.0000;4084.4750
3967.0000;4076.6290
3968.0000;4081.9990
3969.0000;4090.4860
3970.0000;4089.0250
3971.0000;4073.8210
3972.0000;4051.1890
3973.0000;4045.7680
3974.0000;4051.3340
3975.0000;4045.7820
3976.0000;4031.9110
3977.0000;4026.1240
3978.0000;4046.7890
3979.0000;4066.6590
3980.0000;4069.0950
3981.0000;4049.7750
3982.0000;4040.0970
3983.0000;4045.1560
3984.0000;4047.5300
3985.0000;4053.7560
3986.0000;4057.2450
3987.0000;4046.4830
3988.0000;4049.8310
3989.0000;4067.6560
3990.0000;4075.0960
3991.0000;4076.5780
3992.0000;4071.0180
3993.0000;4058.0770
3994.0000;4053.0880
3995.0000;4059.1630
3996.0000;4061.5500
3997.0000;4063.7340
3998.0000;4066.7880
3999.0000;4073.7220
4000.0000;4071.6250
4001.0000;4064.4820
4002.0000;4078.7740
4003.0000;4081.1270
4004.0000;4067.4620
4005.0000;4073.2270
4006.0000;4078.1280
4007.0000;4075.2590
4008.0000;4074.6610
4009.0000;4075.7700
4010.0000;4074.8860
4011.0000;4062.1300
4012.0000;4051.9350
4013.0000;4052.2030
4014.0000;4055.2880
4015.0000;4057.3590
4016.0000;4053.5220
4017.0000;4041.1390
4018.0000;4040.0700
4019.0000;4054.5830
4020.0000;4063.5540
4021.0000;4070.6960
4022.0000;4072.6320
4023.0000;4063.0150
4024.0000;4056.5300
4025.0000;4054.6560
4026.0000;4035.5060
4027.0000;4019.8280
4028.0000;4018.4050
4029.0000;4023.9710
4030.0000;4038.1970
4031.0000;4046.3700
4032.0000;4025.1770
4033.0000;4014.2930
4034.0000;4019.4790
4035.0000;4008.2880
4036.0000;3986.0770
4037.0000;3969.0380
4038.0000;3979.2470
4039.0000;3987.8960
4040.0000;3985.4580
4041.0000;3981.2910
4042.0000;3975.3990
4043.0000;3973.8180
4044.0000;3982.8490
4045.0000;3981.3560
4046.0000;3975.8950
4047.0000;3989.2140
4048.0000;4011.3390
4049.0000;4023.3530
4050.0000;4008.2370
4051.0000;4014.7330
4052.0000;4019.8630
4053.0000;3981.2000
4054.0000;3973.4880
4055.0000;3992.9400
4056.0000;4003.7520
4057.0000;4013.9090
4058.0000;4012.6080
4059.0000;3996.8690
4060.0000;3998.8290
4061.0000;4004.7060
4062.0000;3996.3170
4063.0000;3990.1510
4064.0000;4001.9640
4065.0000;4030.4160
4066.0000;4025.3350
4067.0000;4017.2960
4068.0000;4030.1570
4069.0000;4024.9490
4070.0000;4020.8060
4071.0000;4027.0110
4072.0000;4022.7160
4073.0000;4023.0600
4074.0000;4025.2920
4075.0000;3996.0230
4076.0000;3977.5150
4077.0000;3983.6120
4078.0000;3984.2220
4079.0000;3974.2250
4080.0000;3957.7550
4081.0000;3950.4460
4082.0000;3954.2940
4083.0000;3962.2900
4084.0000;3959.9520
4085.0000;3944.6200
4086.0000;3926.2500
4087.0000;3920.1370
4088.0000;3921.6150
4089.0000;3923.4220
4090.0000;3917.5460
4091.0000;3922.0420
4092.0000;3931.0170
4093.0000;3933.4010
4094.0000;3921.7600
4095.0000;3917.0080
4096.0000;3925.6230
4097.0000;3894.1500
4098.0000;3878.9270
4099.0000;3902.4100
4100.0000;3906.5870
4101.0000;3904.7960
4102.0000;3898.4800
4103.0000;3880.3650
4104.0000;3880.1880
4105.0000;3887.1950
4106.0000;3860.0260
4107.0000;3834.3790
4108.0000;3821.9760
4109.0000;3817.7350
4110.0000;3792.3190
4111.0000;3756.5690
4112.0000;3732.1230
4113.0000;3703.3430
4114.0000;3684.3450
4115.0000;3674.1210
4116.0000;3619.7220
4117.0000;3566.9730
4118.0000;3544.5000
4119.0000;3514.7920
4120.0000;3483.9870
4121.0000;3450.5580
4122.0000;3411.7920
4123.0000;3369.7340
4124.0000;3327.1760
4125.0000;3279.6290
4126.0000;3244.8370
4127.0000;3212.9060
4128.0000;3160.7080
4129.0000;3125.5940
4130.0000;3087.3310
4131.0000;3024.7270
4132.0000;2985.4400
4133.0000;2962.5070
4134.0000;2935.4320
4135.0000;2881.5340
4136.0000;2832.3370
4137.0000;2794.7150
4138.0000;2733.2660
4139.0000;2669.8690
4140.0000;2616.4600
4141.0000;2566.9020
4142.0000;2508.8050
4143.0000;2457.4360
4144.0000;2423.0580
4145.0000;2380.5510
4146.0000;2343.3520
4147.0000;2317.6480
4148.0000;2286.4140
4149.0000;2248.1160
4150.0000;2211.9190
4151.0000;2199.8920
4152.0000;2184.2730
4153.0000;2159.6480
4154.0000;2140.0920
4155.0000;2109.1160
4156.0000;2076.0180
4157.0000;2054.2910
4158.0000;2020.2410
4159.0000;1983.8630
4160.0000;1956.5660
4161.0000;1937.9230
4162.0000;1922.9440
4163.0000;1906.0840
4164.0000;1890.0600
4165.0000;1874.2570
4166.0000;1863.2760
4167.0000;1860.2580
4168.0000;1855.8020
4169.0000;1843.6580
4170.0000;1824.3540
4171.0000;1817.4190
4172.0000;1819.8900
4173.0000;1822.0000
4174.0000;1817.9100
4175.0000;1818.9100
4176.0000;1822.8450
4177.0000;1812.8720
4178.0000;1791.8420
4179.0000;1771.5870
4180.0000;1764.9580
4181.0000;1766.4260
4182.0000;1766.6010
4183.0000;1758.1310
4184.0000;1756.5260
4185.0000;1764.0860
4186.0000;1769.5660
4187.0000;1746.7860
4188.0000;1745.2360
4189.0000;1759.7850
4190.0000;1751.2880
4191.0000;1757.0880
4192.0000;1764.7160
4193.0000;1757.9850
4194.0000;1761.4740
4195.0000;1761.0140
4196.0000;1752.9180
4197.0000;1754.8380
4198.0000;1748.0280
4199.0000;1734.3590
4200.0000;1729.0180
4201.0000;1733.9650
4202.0000;1744.2760
4203.0000;1749.6870
4204.0000;1745.8390
4205.0000;1735.4800
4206.0000;1728.7960
4207.0000;1737.0040
4208.0000;1742.5330
4209.0000;1746.9470
4210.0000;1760.7630
4211.0000;1757.3690
4212.0000;1749.0670
4213.0000;1751.0560
4214.0000;1746.7500
4215.0000;1753.0520
4216.0000;1760.6690
4217.0000;1734.3130
4218.0000;1717.0160
4219.0000;1719.2350
4220.0000;1728.9650
4221.0000;1724.0860
4222.0000;1728.4780
4223.0000;1749.6040
4224.0000;1748.1230
4225.0000;1730.6130
4226.0000;1717.6770
4227.0000;1730.9280
4228.0000;1724.2740
4229.0000;1708.5210
4230.0000;1704.5880
4231.0000;1701.1300
4232.0000;1704.8210
4233.0000;1711.8700
4234.0000;1710.7450
4235.0000;1695.6600
4236.0000;1526.2000
4237.0000;1112.7340
4238.0000;606.3760
