Raman Shift ; Dark Subtracted #1
-2.0000;7241.0050
-1.0000;6715.7270
0.0000;5940.1080
1.0000;4975.6410
2.0000;3895.9410
3.0000;2839.2160
4.0000;1969.7690
5.0000;1237.5090
6.0000;742.4105
7.0000;570.7652
8.0000;453.1516
9.0000;389.7415
10.0000;434.4384
11.0000;416.3447
12.0000;269.2790
13.0000;116.6833
14.0000;8.2665
15.0000;-20.4918
16.0000;8.8060
17.0000;36.3091
18.0000;34.4464
19.0000;32.1532
20.0000;30.1507
21.0000;28.6677
22.0000;28.3307
23.0000;29.4604
24.0000;33.3747
25.0000;36.9914
26.0000;36.9571
27.0000;29.2666
28.0000;18.4113
29.0000;10.0837
30.0000;8.6800
31.0000;12.2586
32.0000;16.6285
33.0000;18.2254
34.0000;18.8852
35.0000;18.6885
36.0000;17.5502
37.0000;15.8052
38.0000;14.5183
39.0000;14.8704
40.0000;16.3684
41.0000;18.0172
42.0000;18.7563
43.0000;19.0218
44.0000;19.3492
45.0000;20.6860
46.0000;22.1699
47.0000;23.0644
48.0000;22.7250
49.0000;21.2975
50.0000;19.7756
51.0000;19.8717
52.0000;20.5411
53.0000;19.9702
54.0000;15.1532
55.0000;8.1819
56.0000;3.0819
57.0000;2.8446
58.0000;7.9134
59.0000;15.5802
60.0000;23.2100
61.0000;30.4101
62.0000;36.5855
63.0000;41.9153
64.0000;44.6256
65.0000;46.4707
66.0000;49.1860
67.0000;52.2910
68.0000;57.8006
69.0000;68.6171
70.0000;83.3053
71.0000;99.2150
72.0000;115.5190
73.0000;129.2939
74.0000;141.1336
75.0000;154.2531
76.0000;165.0126
77.0000;176.3787
78.0000;195.3736
79.0000;218.3092
80.0000;239.8191
81.0000;258.4035
82.0000;269.8783
83.0000;278.6577
84.0000;293.2629
85.0000;310.8257
86.0000;328.9401
87.0000;349.6304
88.0000;369.5298
89.0000;389.4329
90.0000;413.1821
91.0000;437.3289
92.0000;460.5853
93.0000;487.3436
94.0000;513.2162
95.0000;538.7894
96.0000;570.5859
97.0000;604.3843
98.0000;634.6327
99.0000;664.6244
100.0000;689.0726
101.0000;706.7606
102.0000;728.8007
103.0000;751.4197
104.0000;771.0831
105.0000;791.0936
106.0000;808.3177
107.0000;823.3922
108.0000;844.9930
109.0000;869.4601
110.0000;892.4809
111.0000;915.8376
112.0000;936.0832
113.0000;952.0764
114.0000;972.0094
115.0000;993.3206
116.0000;1012.4600
117.0000;1031.7610
118.0000;1048.5670
119.0000;1062.2070
120.0000;1078.2170
121.0000;1094.8330
122.0000;1108.4520
123.0000;1120.2980
124.0000;1128.2040
125.0000;1133.8490
126.0000;1143.4230
127.0000;1156.4340
128.0000;1170.5360
129.0000;1186.0990
130.0000;1201.4570
131.0000;1215.5400
132.0000;1230.9770
133.0000;1245.9590
134.0000;1256.5380
135.0000;1262.5640
136.0000;1261.9120
137.0000;1258.4820
138.0000;1260.9010
139.0000;1270.3660
140.0000;1281.2540
141.0000;1291.0010
142.0000;1297.9310
143.0000;1302.1400
144.0000;1306.3350
145.0000;1309.2900
146.0000;1311.0350
147.0000;1313.5160
148.0000;1316.2540
149.0000;1319.9500
150.0000;1326.8570
151.0000;1336.9180
152.0000;1345.4470
153.0000;1350.0790
154.0000;1348.8530
155.0000;1344.9630
156.0000;1343.1540
157.0000;1343.9170
158.0000;1345.9380
159.0000;1348.7790
160.0000;1352.4130
161.0000;1355.6720
162.0000;1358.0050
163.0000;1358.6180
164.0000;1358.2640
165.0000;1357.7610
166.0000;1357.1160
167.0000;1357.9190
168.0000;1363.0050
169.0000;1371.6720
170.0000;1379.6510
171.0000;1382.2350
172.0000;1378.3950
173.0000;1372.7740
174.0000;1370.6610
175.0000;1372.2630
176.0000;1374.7030
177.0000;1374.9310
178.0000;1373.5290
179.0000;1373.5380
180.0000;1378.2660
181.0000;1387.2380
182.0000;1395.8220
183.0000;1401.6990
184.0000;1402.9560
185.0000;1400.7230
186.0000;1395.6760
187.0000;1388.4930
188.0000;1383.4140
189.0000;1386.6740
190.0000;1396.7280
191.0000;1406.6470
192.0000;1408.1090
193.0000;1402.4810
194.0000;1395.7400
195.0000;1394.4290
196.0000;1397.2440
197.0000;1401.4900
198.0000;1404.5630
199.0000;1407.0140
200.0000;1409.0310
201.0000;1411.4860
202.0000;1413.2560
203.0000;1413.9050
204.0000;1413.2290
205.0000;1411.2910
206.0000;1409.8430
207.0000;1410.8660
208.0000;1413.4040
209.0000;1415.7080
210.0000;1416.0920
211.0000;1415.2350
212.0000;1414.3150
213.0000;1413.8460
214.0000;1414.2660
215.0000;1416.4000
216.0000;1421.1500
217.0000;1427.4450
218.0000;1433.4930
219.0000;1438.8190
220.0000;1442.4630
221.0000;1445.5580
222.0000;1448.5640
223.0000;1451.2560
224.0000;1455.7640
225.0000;1464.3340
226.0000;1473.4020
227.0000;1481.7110
228.0000;1487.3040
229.0000;1490.5640
230.0000;1495.5180
231.0000;1505.3570
232.0000;1514.1160
233.0000;1517.8110
234.0000;1513.2650
235.0000;1504.2620
236.0000;1497.9740
237.0000;1497.8490
238.0000;1500.6890
239.0000;1503.0170
240.0000;1503.4350
241.0000;1503.3360
242.0000;1503.4430
243.0000;1504.0970
244.0000;1503.9480
245.0000;1501.5490
246.0000;1496.3020
247.0000;1491.5360
248.0000;1490.2910
249.0000;1493.8660
250.0000;1499.6940
251.0000;1505.0750
252.0000;1508.9530
253.0000;1512.2500
254.0000;1516.5780
255.0000;1521.0530
256.0000;1524.1270
257.0000;1525.2380
258.0000;1523.7700
259.0000;1522.2210
260.0000;1524.7650
261.0000;1530.1240
262.0000;1534.4180
263.0000;1533.4190
264.0000;1527.3790
265.0000;1520.7570
266.0000;1517.0600
267.0000;1516.9750
268.0000;1520.1380
269.0000;1526.2260
270.0000;1534.8550
271.0000;1543.0980
272.0000;1549.1170
273.0000;1551.6830
274.0000;1552.2900
275.0000;1552.3480
276.0000;1551.3710
277.0000;1552.2000
278.0000;1558.8090
279.0000;1567.4090
280.0000;1574.0940
281.0000;1575.6790
282.0000;1573.4570
283.0000;1571.4250
284.0000;1572.5310
285.0000;1574.8830
286.0000;1578.0590
287.0000;1582.0340
288.0000;1585.7690
289.0000;1588.3340
290.0000;1588.4760
291.0000;1588.0840
292.0000;1590.5910
293.0000;1597.6200
294.0000;1605.3970
295.0000;1611.3870
296.0000;1614.0680
297.0000;1613.1330
298.0000;1609.2450
299.0000;1602.0110
300.0000;1595.6570
301.0000;1595.8480
302.0000;1604.1150
303.0000;1614.1080
304.0000;1618.6640
305.0000;1616.8310
306.0000;1613.9850
307.0000;1616.5640
308.0000;1623.7270
309.0000;1630.1160
310.0000;1631.5840
311.0000;1628.4080
312.0000;1625.0890
313.0000;1626.7590
314.0000;1631.9300
315.0000;1637.0310
316.0000;1638.5610
317.0000;1638.1510
318.0000;1639.3100
319.0000;1647.2630
320.0000;1657.1500
321.0000;1664.5600
322.0000;1665.9000
323.0000;1662.4130
324.0000;1658.9750
325.0000;1660.1090
326.0000;1662.3190
327.0000;1663.4510
328.0000;1661.0930
329.0000;1658.7910
330.0000;1659.9840
331.0000;1666.9110
332.0000;1676.2520
333.0000;1683.8860
334.0000;1688.1450
335.0000;1689.2810
336.0000;1689.0220
337.0000;1687.1210
338.0000;1684.2860
339.0000;1682.4020
340.0000;1682.0400
341.0000;1683.6700
342.0000;1687.8290
343.0000;1694.6110
344.0000;1701.3690
345.0000;1706.7820
346.0000;1709.5930
347.0000;1710.1670
348.0000;1709.5350
349.0000;1707.2900
350.0000;1706.1950
351.0000;1709.5090
352.0000;1715.8460
353.0000;1721.7260
354.0000;1724.2220
355.0000;1724.5060
356.0000;1725.7570
357.0000;1733.0210
358.0000;1740.4830
359.0000;1744.2490
360.0000;1740.7600
361.0000;1732.9010
362.0000;1725.7800
363.0000;1722.8240
364.0000;1722.6510
365.0000;1724.0130
366.0000;1726.7460
367.0000;1730.0720
368.0000;1731.1440
369.0000;1728.8800
370.0000;1726.5600
371.0000;1728.0910
372.0000;1734.2960
373.0000;1741.4060
374.0000;1746.6600
375.0000;1748.7920
376.0000;1749.7590
377.0000;1752.4860
378.0000;1755.6710
379.0000;1757.7600
380.0000;1757.6000
381.0000;1755.7460
382.0000;1755.3130
383.0000;1760.4250
384.0000;1768.2410
385.0000;1775.1000
386.0000;1777.6900
387.0000;1776.6080
388.0000;1774.9240
389.0000;1775.2710
390.0000;1775.6700
391.0000;1775.5440
392.0000;1773.7100
393.0000;1772.9170
394.0000;1776.0680
395.0000;1784.6640
396.0000;1795.0260
397.0000;1802.7110
398.0000;1805.8910
399.0000;1805.6920
400.0000;1805.2400
401.0000;1804.1880
402.0000;1803.3640
403.0000;1804.4040
404.0000;1807.5710
405.0000;1812.5100
406.0000;1820.2540
407.0000;1828.8740
408.0000;1836.2190
409.0000;1839.6840
410.0000;1839.3210
411.0000;1839.8230
412.0000;1847.4910
413.0000;1857.2820
414.0000;1864.5430
415.0000;1865.5100
416.0000;1862.3920
417.0000;1861.0440
418.0000;1865.8280
419.0000;1871.4310
420.0000;1873.4940
421.0000;1869.7950
422.0000;1863.0450
423.0000;1856.5970
424.0000;1851.8360
425.0000;1849.9690
426.0000;1852.2690
427.0000;1859.5190
428.0000;1868.0170
429.0000;1874.3890
430.0000;1877.3690
431.0000;1878.5080
432.0000;1880.8530
433.0000;1882.3040
434.0000;1882.0140
435.0000;1879.0990
436.0000;1874.6990
437.0000;1872.4030
438.0000;1875.4410
439.0000;1881.5360
440.0000;1887.4140
441.0000;1889.9130
442.0000;1890.9830
443.0000;1893.2860
444.0000;1898.2310
445.0000;1903.5520
446.0000;1908.5790
447.0000;1912.4090
448.0000;1915.0170
449.0000;1918.0040
450.0000;1920.7180
451.0000;1923.1600
452.0000;1926.8100
453.0000;1930.7800
454.0000;1934.2590
455.0000;1936.4640
456.0000;1937.7240
457.0000;1941.6250
458.0000;1953.9260
459.0000;1969.1050
460.0000;1980.3980
461.0000;1985.0230
462.0000;1981.6890
463.0000;1975.5480
464.0000;1969.2220
465.0000;1962.9930
466.0000;1959.8630
467.0000;1961.6370
468.0000;1967.0400
469.0000;1972.8270
470.0000;1978.3950
471.0000;1984.1650
472.0000;1991.2020
473.0000;1998.1710
474.0000;2003.2900
475.0000;2006.3850
476.0000;2006.2390
477.0000;2005.3930
478.0000;2007.2360
479.0000;2010.3440
480.0000;2014.1000
481.0000;2017.5900
482.0000;2021.4060
483.0000;2027.1520
484.0000;2036.1850
485.0000;2045.8770
486.0000;2055.4080
487.0000;2063.7670
488.0000;2069.5090
489.0000;2074.7230
490.0000;2078.6340
491.0000;2080.2580
492.0000;2080.7850
493.0000;2079.8530
494.0000;2080.6880
495.0000;2087.4250
496.0000;2099.0910
497.0000;2112.2790
498.0000;2124.9840
499.0000;2135.2680
500.0000;2144.3000
501.0000;2156.9190
502.0000;2165.9710
503.0000;2170.8020
504.0000;2170.7550
505.0000;2165.9020
506.0000;2161.9090
507.0000;2161.2460
508.0000;2162.7520
509.0000;2165.7700
510.0000;2170.2610
511.0000;2176.7040
512.0000;2185.9480
513.0000;2196.6520
514.0000;2205.9270
515.0000;2213.0990
516.0000;2215.7310
517.0000;2215.3870
518.0000;2216.5530
519.0000;2215.4690
520.0000;2211.3440
521.0000;2202.8250
522.0000;2192.8140
523.0000;2185.3960
524.0000;2184.0790
525.0000;2185.6570
526.0000;2183.3390
527.0000;2174.8070
528.0000;2166.5090
529.0000;2163.0130
530.0000;2166.3060
531.0000;2172.2390
532.0000;2175.9470
533.0000;2177.5310
534.0000;2177.9930
535.0000;2177.3980
536.0000;2176.2200
537.0000;2176.9000
538.0000;2183.0500
539.0000;2190.8330
540.0000;2196.3360
541.0000;2196.5330
542.0000;2193.4280
543.0000;2191.9670
544.0000;2194.2410
545.0000;2195.6390
546.0000;2191.4170
547.0000;2181.1980
548.0000;2172.0130
549.0000;2170.2560
550.0000;2176.8990
551.0000;2186.2510
552.0000;2193.4520
553.0000;2198.2020
554.0000;2199.6000
555.0000;2197.9470
556.0000;2192.5000
557.0000;2187.0850
558.0000;2184.0620
559.0000;2182.0020
560.0000;2179.1330
561.0000;2174.8760
562.0000;2171.4450
563.0000;2169.8280
564.0000;2170.7190
565.0000;2172.9620
566.0000;2174.2280
567.0000;2174.8130
568.0000;2175.3120
569.0000;2177.1790
570.0000;2178.8310
571.0000;2178.0990
572.0000;2171.7440
573.0000;2164.0810
574.0000;2160.1580
575.0000;2163.7790
576.0000;2171.4270
577.0000;2178.4170
578.0000;2182.4160
579.0000;2184.0260
580.0000;2183.4380
581.0000;2180.2270
582.0000;2177.1110
583.0000;2178.6180
584.0000;2183.5860
585.0000;2187.3580
586.0000;2184.6880
587.0000;2179.2320
588.0000;2176.9320
589.0000;2183.2090
590.0000;2193.3080
591.0000;2200.7800
592.0000;2202.5860
593.0000;2200.9180
594.0000;2200.3420
595.0000;2201.2880
596.0000;2199.4390
597.0000;2190.3210
598.0000;2175.3430
599.0000;2164.1770
600.0000;2163.8440
601.0000;2173.6870
602.0000;2185.5410
603.0000;2191.9970
604.0000;2194.7110
605.0000;2194.8840
606.0000;2192.2400
607.0000;2188.3950
608.0000;2188.3920
609.0000;2194.1410
610.0000;2200.5220
611.0000;2201.5970
612.0000;2197.1780
613.0000;2194.0180
614.0000;2199.4850
615.0000;2211.0400
616.0000;2221.2840
617.0000;2224.4540
618.0000;2222.8780
619.0000;2223.2050
620.0000;2230.3380
621.0000;2238.5190
622.0000;2244.6190
623.0000;2246.0390
624.0000;2245.8440
625.0000;2248.7570
626.0000;2254.5970
627.0000;2260.9880
628.0000;2268.4080
629.0000;2274.6000
630.0000;2278.0040
631.0000;2278.8160
632.0000;2275.8690
633.0000;2272.3380
634.0000;2269.9650
635.0000;2268.8390
636.0000;2270.0000
637.0000;2273.9390
638.0000;2279.3960
639.0000;2284.7280
640.0000;2288.8280
641.0000;2290.5830
642.0000;2289.1360
643.0000;2284.6600
644.0000;2281.5230
645.0000;2284.4110
646.0000;2290.5720
647.0000;2295.4390
648.0000;2295.4860
649.0000;2293.6440
650.0000;2293.9790
651.0000;2297.9970
652.0000;2302.0220
653.0000;2301.5940
654.0000;2296.8990
655.0000;2295.6860
656.0000;2305.6000
657.0000;2324.3060
658.0000;2343.9000
659.0000;2353.6980
660.0000;2361.6230
661.0000;2381.0120
662.0000;2421.0800
663.0000;2469.0480
664.0000;2519.5230
665.0000;2564.8000
666.0000;2599.9930
667.0000;2639.6860
668.0000;2668.4750
669.0000;2674.0310
670.0000;2655.8790
671.0000;2608.6810
672.0000;2552.1670
673.0000;2500.6880
674.0000;2458.8420
675.0000;2423.8070
676.0000;2398.9560
677.0000;2385.7390
678.0000;2363.3290
679.0000;2334.0640
680.0000;2311.5530
681.0000;2295.4080
682.0000;2292.5280
683.0000;2296.1160
684.0000;2293.8670
685.0000;2293.3130
686.0000;2295.1920
687.0000;2300.8470
688.0000;2306.6010
689.0000;2306.8390
690.0000;2298.5360
691.0000;2289.0750
692.0000;2286.8060
693.0000;2292.9710
694.0000;2301.1300
695.0000;2304.1190
696.0000;2303.7980
697.0000;2304.5180
698.0000;2310.5820
699.0000;2318.2630
700.0000;2325.1200
701.0000;2329.7110
702.0000;2331.3280
703.0000;2330.7600
704.0000;2327.6160
705.0000;2325.6200
706.0000;2330.6280
707.0000;2340.8030
708.0000;2349.3070
709.0000;2350.1050
710.0000;2345.4000
711.0000;2341.7930
712.0000;2344.7460
713.0000;2348.3410
714.0000;2346.6100
715.0000;2337.4090
716.0000;2328.9000
717.0000;2329.5660
718.0000;2339.5850
719.0000;2349.9440
720.0000;2350.5380
721.0000;2345.3220
722.0000;2342.9810
723.0000;2350.9100
724.0000;2362.6540
725.0000;2372.4490
726.0000;2377.1650
727.0000;2377.9650
728.0000;2377.8820
729.0000;2376.2630
730.0000;2374.3810
731.0000;2375.5850
732.0000;2378.2810
733.0000;2379.3150
734.0000;2375.4040
735.0000;2369.6950
736.0000;2366.1760
737.0000;2367.2670
738.0000;2370.6930
739.0000;2373.5180
740.0000;2375.2000
741.0000;2375.9720
742.0000;2375.3360
743.0000;2373.6940
744.0000;2373.3000
745.0000;2376.9400
746.0000;2382.0840
747.0000;2385.7010
748.0000;2385.4070
749.0000;2384.3020
750.0000;2386.9080
751.0000;2393.6510
752.0000;2400.1510
753.0000;2403.5400
754.0000;2402.5220
755.0000;2397.5000
756.0000;2388.2990
757.0000;2377.7820
758.0000;2371.1420
759.0000;2372.4210
760.0000;2378.3630
761.0000;2383.0920
762.0000;2385.0980
763.0000;2386.0440
764.0000;2386.1010
765.0000;2385.5090
766.0000;2386.9000
767.0000;2394.4740
768.0000;2403.4010
769.0000;2408.3530
770.0000;2405.3540
771.0000;2398.0210
772.0000;2392.3760
773.0000;2389.6800
774.0000;2389.6720
775.0000;2391.6030
776.0000;2396.4430
777.0000;2402.8000
778.0000;2411.2100
779.0000;2418.3330
780.0000;2422.0560
781.0000;2419.9480
782.0000;2415.6350
783.0000;2415.8920
784.0000;2421.6430
785.0000;2428.1450
786.0000;2429.9510
787.0000;2428.5880
788.0000;2429.5650
789.0000;2439.0550
790.0000;2450.8040
791.0000;2460.1090
792.0000;2463.3490
793.0000;2461.7790
794.0000;2459.1530
795.0000;2455.1590
796.0000;2451.4690
797.0000;2450.7250
798.0000;2452.4720
799.0000;2453.6370
800.0000;2450.0520
801.0000;2447.2500
802.0000;2450.9290
803.0000;2463.7080
804.0000;2478.1650
805.0000;2485.9440
806.0000;2484.9890
807.0000;2480.7030
808.0000;2479.7370
809.0000;2479.4140
810.0000;2479.3490
811.0000;2479.2560
812.0000;2479.7870
813.0000;2481.2080
814.0000;2483.6500
815.0000;2486.6690
816.0000;2490.1220
817.0000;2493.4090
818.0000;2495.7540
819.0000;2496.8320
820.0000;2496.6610
821.0000;2497.3270
822.0000;2499.7700
823.0000;2503.2080
824.0000;2507.9400
825.0000;2513.1260
826.0000;2516.4520
827.0000;2514.1480
828.0000;2508.5470
829.0000;2507.7370
830.0000;2522.8450
831.0000;2540.8900
832.0000;2545.9740
833.0000;2529.5530
834.0000;2507.8540
835.0000;2500.9910
836.0000;2510.0000
837.0000;2521.4890
838.0000;2520.0150
839.0000;2512.9410
840.0000;2510.3930
841.0000;2519.8340
842.0000;2532.5420
843.0000;2539.0280
844.0000;2535.9980
845.0000;2529.8520
846.0000;2528.8600
847.0000;2531.3380
848.0000;2532.9640
849.0000;2529.6870
850.0000;2524.9670
851.0000;2523.1670
852.0000;2526.9280
853.0000;2531.9250
854.0000;2532.1500
855.0000;2527.8130
856.0000;2525.3380
857.0000;2532.1040
858.0000;2544.1640
859.0000;2553.9030
860.0000;2556.4760
861.0000;2553.6850
862.0000;2549.8990
863.0000;2545.9070
864.0000;2542.8760
865.0000;2542.8930
866.0000;2546.6460
867.0000;2552.8100
868.0000;2561.5410
869.0000;2569.6160
870.0000;2573.0890
871.0000;2568.8420
872.0000;2563.5150
873.0000;2566.9890
874.0000;2578.7080
875.0000;2589.9530
876.0000;2593.7730
877.0000;2591.5690
878.0000;2588.9650
879.0000;2589.9200
880.0000;2590.8730
881.0000;2590.3750
882.0000;2588.0720
883.0000;2585.1110
884.0000;2581.4910
885.0000;2578.7790
886.0000;2579.1480
887.0000;2583.9720
888.0000;2592.0270
889.0000;2599.8830
890.0000;2605.5240
891.0000;2611.2010
892.0000;2620.7220
893.0000;2631.4880
894.0000;2640.2000
895.0000;2647.3820
896.0000;2649.2110
897.0000;2647.1970
898.0000;2640.7570
899.0000;2634.6840
900.0000;2636.9760
901.0000;2648.0950
902.0000;2659.7540
903.0000;2664.6210
904.0000;2663.7520
905.0000;2662.2870
906.0000;2662.6930
907.0000;2663.9900
908.0000;2668.1060
909.0000;2674.8440
910.0000;2680.1590
911.0000;2680.0810
912.0000;2675.5320
913.0000;2672.7960
914.0000;2675.6260
915.0000;2682.1210
916.0000;2691.2570
917.0000;2702.1500
918.0000;2709.9770
919.0000;2709.6780
920.0000;2701.8230
921.0000;2695.2260
922.0000;2698.1460
923.0000;2705.4600
924.0000;2710.6060
925.0000;2711.1920
926.0000;2710.2570
927.0000;2710.7230
928.0000;2712.3640
929.0000;2715.1000
930.0000;2720.1570
931.0000;2725.3690
932.0000;2728.8750
933.0000;2729.0310
934.0000;2727.5240
935.0000;2728.1040
936.0000;2730.0430
937.0000;2730.4640
938.0000;2725.2500
939.0000;2718.7890
940.0000;2718.5260
941.0000;2728.7870
942.0000;2742.2020
943.0000;2749.1520
944.0000;2748.0710
945.0000;2744.1540
946.0000;2743.5750
947.0000;2743.7890
948.0000;2744.3490
949.0000;2745.1620
950.0000;2745.9140
951.0000;2746.1240
952.0000;2745.6190
953.0000;2744.8860
954.0000;2743.8060
955.0000;2743.2780
956.0000;2744.9550
957.0000;2750.7650
958.0000;2755.7050
959.0000;2753.3200
960.0000;2742.7580
961.0000;2733.0650
962.0000;2733.6710
963.0000;2742.0770
964.0000;2751.0620
965.0000;2755.6180
966.0000;2757.1570
967.0000;2756.6220
968.0000;2753.5320
969.0000;2750.3930
970.0000;2750.0010
971.0000;2752.2010
972.0000;2755.8140
973.0000;2759.4890
974.0000;2764.1730
975.0000;2770.7270
976.0000;2778.1380
977.0000;2786.1910
978.0000;2796.2100
979.0000;2805.1880
980.0000;2811.3400
981.0000;2812.9420
982.0000;2812.4320
983.0000;2816.8400
984.0000;2826.8210
985.0000;2837.6500
986.0000;2846.7760
987.0000;2853.5000
988.0000;2862.9470
989.0000;2877.9590
990.0000;2892.9460
991.0000;2907.0320
992.0000;2916.4170
993.0000;2918.5050
994.0000;2915.2000
995.0000;2903.7760
996.0000;2889.6030
997.0000;2876.4250
998.0000;2865.2260
999.0000;2856.9400
1000.0000;2853.6030
1001.0000;2852.5030
1002.0000;2847.1640
1003.0000;2841.5760
1004.0000;2837.4160
1005.0000;2836.0140
1006.0000;2835.7250
1007.0000;2831.1480
1008.0000;2823.6710
1009.0000;2820.2940
1010.0000;2826.8430
1011.0000;2840.4350
1012.0000;2854.3140
1013.0000;2863.6610
1014.0000;2869.2730
1015.0000;2875.4930
1016.0000;2879.6940
1017.0000;2880.0410
1018.0000;2876.4330
1019.0000;2870.0590
1020.0000;2867.1540
1021.0000;2870.8290
1022.0000;2877.6260
1023.0000;2885.2990
1024.0000;2891.9670
1025.0000;2894.5160
1026.0000;2890.6600
1027.0000;2882.0760
1028.0000;2875.8620
1029.0000;2875.3420
1030.0000;2875.2860
1031.0000;2867.9480
1032.0000;2857.1770
1033.0000;2853.0940
1034.0000;2864.2380
1035.0000;2882.0150
1036.0000;2892.5210
1037.0000;2891.0540
1038.0000;2884.9690
1039.0000;2883.5880
1040.0000;2884.4630
1041.0000;2884.9340
1042.0000;2883.1160
1043.0000;2881.6850
1044.0000;2882.5550
1045.0000;2886.4270
1046.0000;2892.6550
1047.0000;2902.0610
1048.0000;2911.3480
1049.0000;2916.4910
1050.0000;2914.4500
1051.0000;2908.7090
1052.0000;2905.3310
1053.0000;2905.3170
1054.0000;2909.9960
1055.0000;2921.7440
1056.0000;2936.8030
1057.0000;2949.1010
1058.0000;2954.8360
1059.0000;2954.8120
1060.0000;2953.2370
1061.0000;2949.2720
1062.0000;2946.4740
1063.0000;2948.4810
1064.0000;2953.5080
1065.0000;2959.6290
1066.0000;2965.8560
1067.0000;2969.0750
1068.0000;2965.1630
1069.0000;2956.5450
1070.0000;2953.1960
1071.0000;2963.3240
1072.0000;2977.4010
1073.0000;2983.7090
1074.0000;2979.3760
1075.0000;2973.1910
1076.0000;2973.7180
1077.0000;2978.3400
1078.0000;2984.3920
1079.0000;2990.5110
1080.0000;2996.2290
1081.0000;3001.1630
1082.0000;3004.3870
1083.0000;3008.0040
1084.0000;3016.7050
1085.0000;3024.4810
1086.0000;3026.5110
1087.0000;3019.9170
1088.0000;3014.8940
1089.0000;3023.9020
1090.0000;3043.4180
1091.0000;3062.6190
1092.0000;3073.3070
1093.0000;3077.0510
1094.0000;3080.5650
1095.0000;3082.4990
1096.0000;3080.4230
1097.0000;3074.7290
1098.0000;3066.5140
1099.0000;3060.2260
1100.0000;3059.0430
1101.0000;3058.8660
1102.0000;3053.0480
1103.0000;3043.1570
1104.0000;3035.5600
1105.0000;3033.1310
1106.0000;3035.7190
1107.0000;3039.2120
1108.0000;3042.5020
1109.0000;3045.3470
1110.0000;3046.8910
1111.0000;3046.3910
1112.0000;3044.5480
1113.0000;3041.5510
1114.0000;3038.5790
1115.0000;3038.0730
1116.0000;3040.1480
1117.0000;3040.7410
1118.0000;3034.3910
1119.0000;3026.2040
1120.0000;3023.9760
1121.0000;3031.1450
1122.0000;3038.9380
1123.0000;3035.7990
1124.0000;3025.0190
1125.0000;3017.2330
1126.0000;3021.5800
1127.0000;3028.9340
1128.0000;3028.0490
1129.0000;3017.4830
1130.0000;3005.3110
1131.0000;2997.3460
1132.0000;2993.9580
1133.0000;2991.4670
1134.0000;2988.9440
1135.0000;2988.6070
1136.0000;2990.0500
1137.0000;2992.8480
1138.0000;2993.6790
1139.0000;2989.8530
1140.0000;2983.4030
1141.0000;2976.0670
1142.0000;2969.6320
1143.0000;2965.7410
1144.0000;2965.8750
1145.0000;2969.3710
1146.0000;2970.4260
1147.0000;2965.8280
1148.0000;2961.4230
1149.0000;2962.9900
1150.0000;2969.9540
1151.0000;2976.5160
1152.0000;2979.0690
1153.0000;2978.7880
1154.0000;2979.6020
1155.0000;2981.0680
1156.0000;2977.6000
1157.0000;2963.6790
1158.0000;2944.7170
1159.0000;2931.3320
1160.0000;2928.8410
1161.0000;2932.6070
1162.0000;2932.3650
1163.0000;2931.2080
1164.0000;2933.4800
1165.0000;2941.8200
1166.0000;2952.1880
1167.0000;2958.6880
1168.0000;2959.3390
1169.0000;2959.2200
1170.0000;2964.7160
1171.0000;2971.6400
1172.0000;2977.8930
1173.0000;2982.2780
1174.0000;2980.6460
1175.0000;2968.7940
1176.0000;2949.7300
1177.0000;2936.6610
1178.0000;2937.8220
1179.0000;2949.0820
1180.0000;2961.4040
1181.0000;2972.7220
1182.0000;2981.1000
1183.0000;2984.9960
1184.0000;2982.6210
1185.0000;2978.6610
1186.0000;2974.2590
1187.0000;2970.3790
1188.0000;2969.8410
1189.0000;2971.4840
1190.0000;2969.9100
1191.0000;2960.8510
1192.0000;2953.2920
1193.0000;2955.7040
1194.0000;2968.3800
1195.0000;2981.8550
1196.0000;2989.1810
1197.0000;2991.3110
1198.0000;2992.3310
1199.0000;2991.6270
1200.0000;2987.9740
1201.0000;2981.5950
1202.0000;2974.2140
1203.0000;2970.0660
1204.0000;2971.7190
1205.0000;2975.5540
1206.0000;2976.7900
1207.0000;2975.6190
1208.0000;2971.7580
1209.0000;2962.9970
1210.0000;2957.2860
1211.0000;2964.1180
1212.0000;2983.5030
1213.0000;2999.9410
1214.0000;2999.8130
1215.0000;2990.1600
1216.0000;2985.2310
1217.0000;2988.3040
1218.0000;2993.9090
1219.0000;2997.6300
1220.0000;3000.7650
1221.0000;3005.6380
1222.0000;3013.0740
1223.0000;3019.1140
1224.0000;3022.2970
1225.0000;3020.9600
1226.0000;3017.1620
1227.0000;3012.3860
1228.0000;3006.5370
1229.0000;3000.7400
1230.0000;2996.1870
1231.0000;2992.5420
1232.0000;2987.1590
1233.0000;2984.4030
1234.0000;2986.3970
1235.0000;2994.0170
1236.0000;3000.1690
1237.0000;2995.3010
1238.0000;2985.5880
1239.0000;2984.1120
1240.0000;2997.4560
1241.0000;3011.0200
1242.0000;3009.0020
1243.0000;2994.9030
1244.0000;2984.4010
1245.0000;2987.6670
1246.0000;2995.7600
1247.0000;2997.7640
1248.0000;2994.3250
1249.0000;2992.8620
1250.0000;2998.3390
1251.0000;3007.5530
1252.0000;3018.1600
1253.0000;3027.9700
1254.0000;3032.8440
1255.0000;3029.1080
1256.0000;3020.0950
1257.0000;3016.9980
1258.0000;3023.7600
1259.0000;3032.8590
1260.0000;3038.3950
1261.0000;3039.7460
1262.0000;3037.8880
1263.0000;3032.9010
1264.0000;3025.9830
1265.0000;3019.2950
1266.0000;3015.0420
1267.0000;3015.6440
1268.0000;3022.8280
1269.0000;3033.4880
1270.0000;3042.2830
1271.0000;3047.2160
1272.0000;3048.7380
1273.0000;3047.6470
1274.0000;3044.5220
1275.0000;3044.7310
1276.0000;3049.1400
1277.0000;3053.1360
1278.0000;3052.8930
1279.0000;3050.6670
1280.0000;3050.3010
1281.0000;3052.9710
1282.0000;3058.0870
1283.0000;3066.5850
1284.0000;3075.7680
1285.0000;3081.3020
1286.0000;3080.8180
1287.0000;3077.6310
1288.0000;3077.7280
1289.0000;3079.7200
1290.0000;3081.8580
1291.0000;3083.4230
1292.0000;3084.3490
1293.0000;3084.2260
1294.0000;3083.4610
1295.0000;3084.8440
1296.0000;3091.2100
1297.0000;3097.5450
1298.0000;3097.8840
1299.0000;3091.8320
1300.0000;3087.3260
1301.0000;3092.3230
1302.0000;3100.0390
1303.0000;3101.7720
1304.0000;3096.0460
1305.0000;3092.0040
1306.0000;3098.1340
1307.0000;3109.2630
1308.0000;3119.0720
1309.0000;3124.7420
1310.0000;3126.8210
1311.0000;3127.8890
1312.0000;3126.1260
1313.0000;3124.5670
1314.0000;3124.4560
1315.0000;3123.5540
1316.0000;3119.3560
1317.0000;3114.2790
1318.0000;3111.9490
1319.0000;3114.5740
1320.0000;3119.9100
1321.0000;3123.4770
1322.0000;3126.4280
1323.0000;3132.0990
1324.0000;3143.5100
1325.0000;3152.1070
1326.0000;3151.6080
1327.0000;3141.8670
1328.0000;3132.1840
1329.0000;3129.5560
1330.0000;3130.8740
1331.0000;3132.1740
1332.0000;3134.2060
1333.0000;3137.4170
1334.0000;3142.0680
1335.0000;3146.5180
1336.0000;3149.6330
1337.0000;3150.5980
1338.0000;3150.6770
1339.0000;3152.0350
1340.0000;3152.6820
1341.0000;3152.3500
1342.0000;3150.7310
1343.0000;3148.2000
1344.0000;3144.0440
1345.0000;3140.7860
1346.0000;3140.5870
1347.0000;3144.5790
1348.0000;3149.7620
1349.0000;3153.6460
1350.0000;3155.9630
1351.0000;3157.6930
1352.0000;3158.5750
1353.0000;3157.3750
1354.0000;3154.0480
1355.0000;3149.2140
1356.0000;3145.6070
1357.0000;3144.6750
1358.0000;3143.8470
1359.0000;3138.6920
1360.0000;3132.9900
1361.0000;3130.9110
1362.0000;3134.3800
1363.0000;3141.4480
1364.0000;3150.0040
1365.0000;3157.9700
1366.0000;3161.2750
1367.0000;3157.2540
1368.0000;3150.5960
1369.0000;3147.2990
1370.0000;3147.3150
1371.0000;3149.2470
1372.0000;3152.8080
1373.0000;3156.4790
1374.0000;3157.3270
1375.0000;3156.3970
1376.0000;3158.8270
1377.0000;3167.5800
1378.0000;3175.7140
1379.0000;3178.3650
1380.0000;3174.4780
1381.0000;3168.6980
1382.0000;3163.6780
1383.0000;3158.9420
1384.0000;3154.0430
1385.0000;3150.8750
1386.0000;3150.6000
1387.0000;3153.5360
1388.0000;3159.4670
1389.0000;3167.0000
1390.0000;3174.2880
1391.0000;3178.5020
1392.0000;3177.5030
1393.0000;3173.7490
1394.0000;3172.8110
1395.0000;3173.8860
1396.0000;3173.4860
1397.0000;3168.8010
1398.0000;3165.6110
1399.0000;3170.2640
1400.0000;3181.3520
1401.0000;3190.2940
1402.0000;3191.3200
1403.0000;3188.6180
1404.0000;3189.5050
1405.0000;3192.2440
1406.0000;3192.5630
1407.0000;3187.1730
1408.0000;3182.7330
1409.0000;3187.0870
1410.0000;3199.0450
1411.0000;3210.1710
1412.0000;3215.3470
1413.0000;3215.7000
1414.0000;3213.7000
1415.0000;3209.8020
1416.0000;3210.5640
1417.0000;3221.9260
1418.0000;3233.2400
1419.0000;3233.5410
1420.0000;3222.2600
1421.0000;3209.4360
1422.0000;3199.4070
1423.0000;3195.9680
1424.0000;3204.0980
1425.0000;3221.4030
1426.0000;3232.0670
1427.0000;3224.8960
1428.0000;3213.2340
1429.0000;3214.6000
1430.0000;3225.9120
1431.0000;3234.9340
1432.0000;3235.1980
1433.0000;3231.2400
1434.0000;3229.1260
1435.0000;3227.3740
1436.0000;3223.3670
1437.0000;3215.9410
1438.0000;3210.5310
1439.0000;3211.8240
1440.0000;3219.1650
1441.0000;3225.4920
1442.0000;3226.3610
1443.0000;3226.1200
1444.0000;3230.6120
1445.0000;3236.2040
1446.0000;3236.5790
1447.0000;3228.9160
1448.0000;3219.2460
1449.0000;3213.8670
1450.0000;3213.2470
1451.0000;3213.7230
1452.0000;3214.2810
1453.0000;3217.0120
1454.0000;3222.9980
1455.0000;3229.6780
1456.0000;3232.1460
1457.0000;3227.7880
1458.0000;3224.1910
1459.0000;3232.5280
1460.0000;3243.8460
1461.0000;3244.7800
1462.0000;3230.1630
1463.0000;3213.6370
1464.0000;3206.4150
1465.0000;3206.5340
1466.0000;3206.4790
1467.0000;3205.7210
1468.0000;3207.7000
1469.0000;3213.9870
1470.0000;3221.5190
1471.0000;3225.4750
1472.0000;3223.8940
1473.0000;3221.3190
1474.0000;3222.8870
1475.0000;3224.9640
1476.0000;3224.0230
1477.0000;3220.2940
1478.0000;3218.7910
1479.0000;3222.9580
1480.0000;3230.9910
1481.0000;3241.0790
1482.0000;3250.7080
1483.0000;3253.3810
1484.0000;3244.7400
1485.0000;3230.9930
1486.0000;3222.4130
1487.0000;3220.4140
1488.0000;3218.9580
1489.0000;3214.6220
1490.0000;3212.1640
1491.0000;3213.3950
1492.0000;3218.2930
1493.0000;3222.7870
1494.0000;3224.8360
1495.0000;3225.0770
1496.0000;3223.0560
1497.0000;3221.0310
1498.0000;3226.1940
1499.0000;3242.0740
1500.0000;3255.0070
1501.0000;3253.4490
1502.0000;3240.9180
1503.0000;3230.6640
1504.0000;3228.0510
1505.0000;3229.2900
1506.0000;3231.2700
1507.0000;3234.8980
1508.0000;3237.1860
1509.0000;3237.2370
1510.0000;3238.7150
1511.0000;3245.5540
1512.0000;3253.6150
1513.0000;3258.9130
1514.0000;3260.1460
1515.0000;3260.6580
1516.0000;3263.7020
1517.0000;3266.5490
1518.0000;3269.3110
1519.0000;3270.5280
1520.0000;3268.0290
1521.0000;3258.9140
1522.0000;3252.5180
1523.0000;3260.2440
1524.0000;3278.9470
1525.0000;3292.6500
1526.0000;3292.4580
1527.0000;3286.4330
1528.0000;3284.3100
1529.0000;3284.0940
1530.0000;3285.4490
1531.0000;3288.4910
1532.0000;3290.1360
1533.0000;3287.4710
1534.0000;3281.3440
1535.0000;3273.7580
1536.0000;3266.5190
1537.0000;3262.9390
1538.0000;3264.9700
1539.0000;3272.3200
1540.0000;3279.5850
1541.0000;3285.6700
1542.0000;3292.0590
1543.0000;3301.0710
1544.0000;3307.2650
1545.0000;3308.5250
1546.0000;3304.0140
1547.0000;3299.8210
1548.0000;3299.7700
1549.0000;3301.4310
1550.0000;3303.9270
1551.0000;3305.8760
1552.0000;3303.4000
1553.0000;3294.2640
1554.0000;3288.1540
1555.0000;3295.8870
1556.0000;3310.7080
1557.0000;3317.2290
1558.0000;3310.8060
1559.0000;3304.4740
1560.0000;3313.3980
1561.0000;3323.3880
1562.0000;3317.1260
1563.0000;3294.6210
1564.0000;3277.0470
1565.0000;3279.6850
1566.0000;3291.3470
1567.0000;3294.5140
1568.0000;3291.1520
1569.0000;3289.6420
1570.0000;3293.8550
1571.0000;3298.7270
1572.0000;3300.3430
1573.0000;3298.8850
1574.0000;3296.9920
1575.0000;3295.5200
1576.0000;3293.7910
1577.0000;3290.9230
1578.0000;3288.8260
1579.0000;3289.7960
1580.0000;3293.9300
1581.0000;3295.5360
1582.0000;3288.8040
1583.0000;3280.9520
1584.0000;3281.0110
1585.0000;3289.0040
1586.0000;3296.4850
1587.0000;3298.2980
1588.0000;3297.3270
1589.0000;3296.9100
1590.0000;3296.5240
1591.0000;3297.8760
1592.0000;3301.7860
1593.0000;3303.4870
1594.0000;3299.0830
1595.0000;3290.2970
1596.0000;3280.0130
1597.0000;3270.7390
1598.0000;3267.4220
1599.0000;3274.9180
1600.0000;3285.8930
1601.0000;3286.0910
1602.0000;3276.4780
1603.0000;3271.0150
1604.0000;3278.8200
1605.0000;3287.9200
1606.0000;3285.9500
1607.0000;3275.8200
1608.0000;3268.2060
1609.0000;3266.9380
1610.0000;3269.4180
1611.0000;3272.4290
1612.0000;3276.9840
1613.0000;3281.9650
1614.0000;3286.1320
1615.0000;3287.2920
1616.0000;3284.1260
1617.0000;3278.9670
1618.0000;3277.1430
1619.0000;3278.6130
1620.0000;3280.6250
1621.0000;3281.8570
1622.0000;3282.1660
1623.0000;3279.8300
1624.0000;3277.0870
1625.0000;3278.3100
1626.0000;3284.7520
1627.0000;3293.2410
1628.0000;3302.8390
1629.0000;3309.2330
1630.0000;3310.4150
1631.0000;3305.1350
1632.0000;3299.0230
1633.0000;3296.1940
1634.0000;3296.0620
1635.0000;3298.4310
1636.0000;3303.2330
1637.0000;3308.5640
1638.0000;3312.8610
1639.0000;3313.8350
1640.0000;3310.4740
1641.0000;3303.0560
1642.0000;3295.4280
1643.0000;3289.0740
1644.0000;3285.1700
1645.0000;3283.7960
1646.0000;3285.6240
1647.0000;3287.4770
1648.0000;3289.8850
1649.0000;3293.2410
1650.0000;3297.2090
1651.0000;3299.9760
1652.0000;3301.2790
1653.0000;3300.1490
1654.0000;3298.5270
1655.0000;3296.4120
1656.0000;3291.3940
1657.0000;3280.9370
1658.0000;3272.0140
1659.0000;3270.7830
1660.0000;3277.4060
1661.0000;3282.1900
1662.0000;3280.9590
1663.0000;3275.9320
1664.0000;3268.2590
1665.0000;3259.2310
1666.0000;3250.7210
1667.0000;3244.6370
1668.0000;3242.3840
1669.0000;3243.3010
1670.0000;3248.1220
1671.0000;3254.3770
1672.0000;3259.9620
1673.0000;3260.0860
1674.0000;3251.7910
1675.0000;3243.1610
1676.0000;3243.0170
1677.0000;3248.7330
1678.0000;3253.8400
1679.0000;3256.5850
1680.0000;3256.7850
1681.0000;3254.2750
1682.0000;3249.1080
1683.0000;3241.9030
1684.0000;3235.6380
1685.0000;3235.2970
1686.0000;3244.1590
1687.0000;3252.8840
1688.0000;3250.6000
1689.0000;3242.9530
1690.0000;3240.6540
1691.0000;3244.8160
1692.0000;3244.7900
1693.0000;3232.5820
1694.0000;3220.0880
1695.0000;3218.8570
1696.0000;3227.8470
1697.0000;3237.6690
1698.0000;3244.0700
1699.0000;3246.8000
1700.0000;3244.6390
1701.0000;3239.8940
1702.0000;3241.2730
1703.0000;3248.1260
1704.0000;3251.5410
1705.0000;3246.5290
1706.0000;3238.7520
1707.0000;3234.6510
1708.0000;3234.1320
1709.0000;3235.7770
1710.0000;3239.1160
1711.0000;3236.9820
1712.0000;3220.2310
1713.0000;3202.7170
1714.0000;3201.3490
1715.0000;3215.7690
1716.0000;3227.0180
1717.0000;3225.5750
1718.0000;3220.3920
1719.0000;3218.6500
1720.0000;3219.3740
1721.0000;3223.5520
1722.0000;3230.8510
1723.0000;3237.4030
1724.0000;3241.2280
1725.0000;3240.1740
1726.0000;3234.2000
1727.0000;3224.0140
1728.0000;3215.6040
1729.0000;3211.6850
1730.0000;3210.1200
1731.0000;3207.5320
1732.0000;3206.6530
1733.0000;3205.5170
1734.0000;3205.5670
1735.0000;3209.8150
1736.0000;3220.0420
1737.0000;3227.6330
1738.0000;3222.5250
1739.0000;3211.2420
1740.0000;3209.0070
1741.0000;3217.7150
1742.0000;3223.8870
1743.0000;3217.6610
1744.0000;3209.4770
1745.0000;3210.9330
1746.0000;3218.1810
1747.0000;3219.9300
1748.0000;3212.6390
1749.0000;3206.8210
1750.0000;3210.6050
1751.0000;3217.8410
1752.0000;3219.3290
1753.0000;3216.4200
1754.0000;3218.6580
1755.0000;3230.2220
1756.0000;3237.3050
1757.0000;3223.2230
1758.0000;3204.5400
1759.0000;3208.3980
1760.0000;3236.5970
1761.0000;3259.5100
1762.0000;3260.9400
1763.0000;3252.6650
1764.0000;3251.7360
1765.0000;3251.5000
1766.0000;3247.2460
1767.0000;3239.0350
1768.0000;3230.8950
1769.0000;3224.8220
1770.0000;3222.7920
1771.0000;3223.7940
1772.0000;3227.8030
1773.0000;3230.1160
1774.0000;3228.8720
1775.0000;3224.9470
1776.0000;3218.6810
1777.0000;3211.7320
1778.0000;3205.3660
1779.0000;3202.3530
1780.0000;3205.3850
1781.0000;3215.9300
1782.0000;3224.8000
1783.0000;3223.6150
1784.0000;3216.0190
1785.0000;3210.8910
1786.0000;3208.1690
1787.0000;3202.6690
1788.0000;3191.8040
1789.0000;3184.3330
1790.0000;3186.3710
1791.0000;3194.4030
1792.0000;3197.5580
1793.0000;3193.9620
1794.0000;3188.1640
1795.0000;3181.7290
1796.0000;3177.4320
1797.0000;3177.6000
1798.0000;3181.7430
1799.0000;3184.4280
1800.0000;3184.7730
1801.0000;3186.9020
1802.0000;3193.9740
1803.0000;3198.9140
1804.0000;3195.9940
1805.0000;3186.9770
1806.0000;3179.0450
1807.0000;3175.1150
1808.0000;3172.8240
1809.0000;3170.8040
1810.0000;3169.1150
1811.0000;3163.7120
1812.0000;3157.6170
1813.0000;3155.9210
1814.0000;3160.2580
1815.0000;3162.9870
1816.0000;3156.1420
1817.0000;3149.4770
1818.0000;3153.5200
1819.0000;3165.4190
1820.0000;3173.5420
1821.0000;3173.7470
1822.0000;3168.4840
1823.0000;3159.0090
1824.0000;3150.4930
1825.0000;3151.1390
1826.0000;3159.5670
1827.0000;3163.8210
1828.0000;3159.8500
1829.0000;3152.5350
1830.0000;3144.2120
1831.0000;3138.9460
1832.0000;3142.5880
1833.0000;3152.6590
1834.0000;3154.3650
1835.0000;3142.1660
1836.0000;3131.3460
1837.0000;3133.6960
1838.0000;3143.3870
1839.0000;3153.2200
1840.0000;3160.7200
1841.0000;3162.9000
1842.0000;3157.6030
1843.0000;3150.5740
1844.0000;3148.0450
1845.0000;3148.0470
1846.0000;3149.1820
1847.0000;3150.4540
1848.0000;3146.4870
1849.0000;3135.6550
1850.0000;3127.5950
1851.0000;3129.6670
1852.0000;3137.6060
1853.0000;3142.4320
1854.0000;3144.5830
1855.0000;3146.9680
1856.0000;3149.7910
1857.0000;3153.8580
1858.0000;3161.8200
1859.0000;3167.9600
1860.0000;3167.5690
1861.0000;3161.5150
1862.0000;3158.8180
1863.0000;3162.0850
1864.0000;3163.5330
1865.0000;3156.7000
1866.0000;3149.5220
1867.0000;3151.2930
1868.0000;3159.0050
1869.0000;3160.5230
1870.0000;3153.1340
1871.0000;3149.7360
1872.0000;3159.7760
1873.0000;3173.4240
1874.0000;3179.3890
1875.0000;3178.9400
1876.0000;3181.7870
1877.0000;3188.3280
1878.0000;3192.1890
1879.0000;3189.7250
1880.0000;3185.9160
1881.0000;3188.4610
1882.0000;3194.1020
1883.0000;3196.7490
1884.0000;3195.0730
1885.0000;3193.5020
1886.0000;3194.2100
1887.0000;3196.9350
1888.0000;3203.4800
1889.0000;3209.8330
1890.0000;3209.5640
1891.0000;3202.1500
1892.0000;3195.3210
1893.0000;3193.6430
1894.0000;3193.8040
1895.0000;3193.2140
1896.0000;3191.3650
1897.0000;3183.6780
1898.0000;3173.1910
1899.0000;3168.6590
1900.0000;3174.5830
1901.0000;3181.5950
1902.0000;3179.5290
1903.0000;3173.5090
1904.0000;3168.7940
1905.0000;3166.2470
1906.0000;3164.7640
1907.0000;3164.6990
1908.0000;3165.9800
1909.0000;3167.2080
1910.0000;3169.9750
1911.0000;3176.0600
1912.0000;3182.5490
1913.0000;3184.7030
1914.0000;3180.7210
1915.0000;3175.9540
1916.0000;3174.4180
1917.0000;3173.9690
1918.0000;3171.5570
1919.0000;3170.1840
1920.0000;3173.1780
1921.0000;3180.0340
1922.0000;3184.9720
1923.0000;3184.4930
1924.0000;3181.8510
1925.0000;3179.7760
1926.0000;3179.9410
1927.0000;3186.6870
1928.0000;3197.4830
1929.0000;3203.9220
1930.0000;3201.5490
1931.0000;3195.7800
1932.0000;3192.6650
1933.0000;3189.3790
1934.0000;3184.3390
1935.0000;3179.2520
1936.0000;3175.5740
1937.0000;3174.2950
1938.0000;3173.7390
1939.0000;3172.0260
1940.0000;3171.2090
1941.0000;3170.3150
1942.0000;3171.9440
1943.0000;3179.2050
1944.0000;3191.0060
1945.0000;3199.3850
1946.0000;3200.0550
1947.0000;3198.1470
1948.0000;3201.1930
1949.0000;3204.7630
1950.0000;3207.6650
1951.0000;3208.0170
1952.0000;3203.6040
1953.0000;3194.1560
1954.0000;3187.3980
1955.0000;3189.1850
1956.0000;3194.1700
1957.0000;3192.2560
1958.0000;3188.5770
1959.0000;3192.8290
1960.0000;3204.3960
1961.0000;3211.4390
1962.0000;3206.2510
1963.0000;3200.2000
1964.0000;3205.9570
1965.0000;3215.7770
1966.0000;3219.8300
1967.0000;3218.1550
1968.0000;3217.9920
1969.0000;3221.2390
1970.0000;3226.0570
1971.0000;3232.5340
1972.0000;3237.0220
1973.0000;3237.4010
1974.0000;3233.3810
1975.0000;3228.9850
1976.0000;3225.3750
1977.0000;3223.4840
1978.0000;3224.6110
1979.0000;3224.0000
1980.0000;3213.3550
1981.0000;3203.5290
1982.0000;3208.2790
1983.0000;3224.1460
1984.0000;3232.1760
1985.0000;3226.0250
1986.0000;3215.3810
1987.0000;3205.2910
1988.0000;3201.4370
1989.0000;3210.8540
1990.0000;3228.3090
1991.0000;3238.4760
1992.0000;3238.2330
1993.0000;3236.6310
1994.0000;3237.0080
1995.0000;3236.5110
1996.0000;3234.4930
1997.0000;3233.2720
1998.0000;3236.8670
1999.0000;3242.4030
2000.0000;3242.3480
2001.0000;3235.3600
2002.0000;3228.0780
2003.0000;3223.1150
2004.0000;3229.0750
2005.0000;3257.6140
2006.0000;3289.3730
2007.0000;3296.0790
2008.0000;3277.3730
2009.0000;3263.8940
2010.0000;3265.5010
2011.0000;3267.6670
2012.0000;3263.0550
2013.0000;3257.1770
2014.0000;3252.0340
2015.0000;3249.4770
2016.0000;3248.9750
2017.0000;3251.7910
2018.0000;3258.4670
2019.0000;3268.7290
2020.0000;3272.7160
2021.0000;3263.7160
2022.0000;3248.4870
2023.0000;3237.0140
2024.0000;3231.1080
2025.0000;3227.7310
2026.0000;3229.1240
2027.0000;3235.7760
2028.0000;3247.3440
2029.0000;3253.8310
2030.0000;3243.6730
2031.0000;3230.2350
2032.0000;3234.1270
2033.0000;3249.5050
2034.0000;3254.9510
2035.0000;3247.5680
2036.0000;3242.5730
2037.0000;3248.1730
2038.0000;3253.7410
2039.0000;3251.5520
2040.0000;3244.9820
2041.0000;3239.3480
2042.0000;3235.1460
2043.0000;3231.9100
2044.0000;3230.3510
2045.0000;3227.2130
2046.0000;3220.2880
2047.0000;3213.8000
2048.0000;3207.6020
2049.0000;3206.3830
2050.0000;3213.6440
2051.0000;3225.4730
2052.0000;3226.3960
2053.0000;3213.2490
2054.0000;3200.0470
2055.0000;3196.1760
2056.0000;3197.8000
2057.0000;3200.4380
2058.0000;3204.5940
2059.0000;3205.7160
2060.0000;3204.2340
2061.0000;3204.5520
2062.0000;3207.1840
2063.0000;3207.8530
2064.0000;3204.0700
2065.0000;3200.2000
2066.0000;3199.8090
2067.0000;3203.1460
2068.0000;3209.4610
2069.0000;3217.2610
2070.0000;3222.5940
2071.0000;3223.4490
2072.0000;3221.6950
2073.0000;3218.8040
2074.0000;3214.7900
2075.0000;3210.2430
2076.0000;3207.7950
2077.0000;3210.8810
2078.0000;3216.7890
2079.0000;3214.9460
2080.0000;3204.3630
2081.0000;3195.0160
2082.0000;3192.8440
2083.0000;3195.8240
2084.0000;3201.1220
2085.0000;3208.0520
2086.0000;3214.8260
2087.0000;3217.5810
2088.0000;3213.2030
2089.0000;3201.4810
2090.0000;3190.9290
2091.0000;3186.6740
2092.0000;3187.8550
2093.0000;3192.1070
2094.0000;3200.6260
2095.0000;3211.4970
2096.0000;3221.3670
2097.0000;3226.5150
2098.0000;3224.8940
2099.0000;3221.3450
2100.0000;3218.1250
2101.0000;3220.5660
2102.0000;3235.1560
2103.0000;3247.2690
2104.0000;3241.1740
2105.0000;3225.6510
2106.0000;3223.6100
2107.0000;3232.5850
2108.0000;3232.7150
2109.0000;3219.4060
2110.0000;3207.1850
2111.0000;3204.4010
2112.0000;3207.9000
2113.0000;3213.7280
2114.0000;3219.4860
2115.0000;3218.1840
2116.0000;3211.0940
2117.0000;3206.8870
2118.0000;3207.5110
2119.0000;3208.4510
2120.0000;3208.0100
2121.0000;3205.1050
2122.0000;3197.4560
2123.0000;3190.1320
2124.0000;3188.4230
2125.0000;3190.9900
2126.0000;3189.0190
2127.0000;3184.7190
2128.0000;3187.9200
2129.0000;3201.6290
2130.0000;3212.5310
2131.0000;3211.1670
2132.0000;3204.6370
2133.0000;3202.6900
2134.0000;3202.9340
2135.0000;3204.5250
2136.0000;3206.7900
2137.0000;3207.5810
2138.0000;3205.7310
2139.0000;3199.9800
2140.0000;3190.0920
2141.0000;3181.4150
2142.0000;3177.9830
2143.0000;3178.6040
2144.0000;3177.2460
2145.0000;3176.4680
2146.0000;3176.4330
2147.0000;3177.9630
2148.0000;3181.8230
2149.0000;3187.8430
2150.0000;3195.3020
2151.0000;3204.2780
2152.0000;3207.1000
2153.0000;3198.0890
2154.0000;3183.6290
2155.0000;3178.2670
2156.0000;3180.4000
2157.0000;3179.9520
2158.0000;3176.6170
2159.0000;3174.1310
2160.0000;3173.8590
2161.0000;3170.1720
2162.0000;3157.5730
2163.0000;3147.9410
2164.0000;3153.3630
2165.0000;3166.0710
2166.0000;3169.0290
2167.0000;3163.4800
2168.0000;3161.8570
2169.0000;3164.8240
2170.0000;3160.9320
2171.0000;3145.8680
2172.0000;3133.5730
2173.0000;3134.8060
2174.0000;3142.1030
2175.0000;3141.7790
2176.0000;3140.2520
2177.0000;3148.2960
2178.0000;3159.5200
2179.0000;3153.7020
2180.0000;3128.4040
2181.0000;3109.8080
2182.0000;3113.3770
2183.0000;3125.5080
2184.0000;3133.5550
2185.0000;3140.7690
2186.0000;3149.5890
2187.0000;3153.7760
2188.0000;3150.1980
2189.0000;3139.3670
2190.0000;3132.6300
2191.0000;3133.0840
2192.0000;3131.4540
2193.0000;3122.8990
2194.0000;3118.8060
2195.0000;3126.0430
2196.0000;3139.0210
2197.0000;3152.0120
2198.0000;3159.0850
2199.0000;3156.4120
2200.0000;3143.4790
2201.0000;3129.6150
2202.0000;3119.6750
2203.0000;3113.7520
2204.0000;3113.0760
2205.0000;3111.0380
2206.0000;3097.4720
2207.0000;3087.0340
2208.0000;3092.3660
2209.0000;3106.2990
2210.0000;3109.4120
2211.0000;3104.4640
2212.0000;3106.3110
2213.0000;3116.1980
2214.0000;3126.2270
2215.0000;3132.0520
2216.0000;3134.3540
2217.0000;3134.8900
2218.0000;3131.3100
2219.0000;3125.2530
2220.0000;3117.8870
2221.0000;3113.4560
2222.0000;3110.9190
2223.0000;3101.1020
2224.0000;3086.9300
2225.0000;3081.9140
2226.0000;3090.9300
2227.0000;3099.3040
2228.0000;3095.8170
2229.0000;3090.1210
2230.0000;3090.9030
2231.0000;3092.7140
2232.0000;3088.7420
2233.0000;3083.1250
2234.0000;3082.8080
2235.0000;3088.2460
2236.0000;3094.1670
2237.0000;3098.8810
2238.0000;3102.8770
2239.0000;3105.8390
2240.0000;3105.7360
2241.0000;3101.1100
2242.0000;3098.5790
2243.0000;3110.6130
2244.0000;3122.3240
2245.0000;3109.5950
2246.0000;3080.7010
2247.0000;3064.8370
2248.0000;3069.0200
2249.0000;3079.0280
2250.0000;3089.7360
2251.0000;3094.3400
2252.0000;3086.0090
2253.0000;3076.0330
2254.0000;3077.3600
2255.0000;3080.7960
2256.0000;3072.1380
2257.0000;3062.8330
2258.0000;3072.5570
2259.0000;3094.1140
2260.0000;3098.3870
2261.0000;3079.7950
2262.0000;3059.4170
2263.0000;3047.4540
2264.0000;3046.7760
2265.0000;3061.1020
2266.0000;3075.8230
2267.0000;3071.1930
2268.0000;3059.0300
2269.0000;3057.1280
2270.0000;3061.6930
2271.0000;3064.2440
2272.0000;3064.0540
2273.0000;3061.4190
2274.0000;3056.9100
2275.0000;3054.6560
2276.0000;3056.8480
2277.0000;3061.2180
2278.0000;3066.0620
2279.0000;3069.0470
2280.0000;3068.3110
2281.0000;3064.2070
2282.0000;3058.5640
2283.0000;3054.4470
2284.0000;3057.6400
2285.0000;3066.3150
2286.0000;3069.2500
2287.0000;3064.0270
2288.0000;3059.7890
2289.0000;3060.6950
2290.0000;3061.6670
2291.0000;3059.5140
2292.0000;3058.8360
2293.0000;3064.9340
2294.0000;3069.6350
2295.0000;3063.5580
2296.0000;3050.2570
2297.0000;3037.8530
2298.0000;3029.1700
2299.0000;3022.6480
2300.0000;3020.6230
2301.0000;3023.4110
2302.0000;3030.3800
2303.0000;3035.4800
2304.0000;3033.6710
2305.0000;3030.2660
2306.0000;3030.0360
2307.0000;3031.7390
2308.0000;3034.5320
2309.0000;3038.3560
2310.0000;3043.7450
2311.0000;3047.3630
2312.0000;3044.1970
2313.0000;3034.5350
2314.0000;3027.3030
2315.0000;3025.6600
2316.0000;3025.8290
2317.0000;3026.3780
2318.0000;3023.6700
2319.0000;3012.8490
2320.0000;3006.0110
2321.0000;3015.9510
2322.0000;3030.3090
2323.0000;3028.2980
2324.0000;3021.3490
2325.0000;3035.0290
2326.0000;3061.1700
2327.0000;3076.4120
2328.0000;3072.9630
2329.0000;3062.0670
2330.0000;3048.2360
2331.0000;3039.0710
2332.0000;3040.7410
2333.0000;3046.4140
2334.0000;3049.8950
2335.0000;3049.5000
2336.0000;3041.2060
2337.0000;3030.7020
2338.0000;3027.1030
2339.0000;3029.5310
2340.0000;3031.7740
2341.0000;3032.2890
2342.0000;3025.4180
2343.0000;3012.9900
2344.0000;3011.3800
2345.0000;3025.8830
2346.0000;3036.8450
2347.0000;3033.1830
2348.0000;3029.5210
2349.0000;3038.2690
2350.0000;3045.2000
2351.0000;3036.7900
2352.0000;3023.3970
2353.0000;3021.9580
2354.0000;3025.6880
2355.0000;3016.1990
2356.0000;3001.4670
2357.0000;3004.6680
2358.0000;3026.1720
2359.0000;3039.1730
2360.0000;3035.3180
2361.0000;3030.9470
2362.0000;3033.6800
2363.0000;3035.9290
2364.0000;3034.1760
2365.0000;3033.0370
2366.0000;3037.6440
2367.0000;3041.5320
2368.0000;3038.2170
2369.0000;3030.5190
2370.0000;3026.0250
2371.0000;3023.0270
2372.0000;3015.3830
2373.0000;3003.5740
2374.0000;2983.9990
2375.0000;2963.2500
2376.0000;2965.8650
2377.0000;2999.9390
2378.0000;3027.0520
2379.0000;3022.3880
2380.0000;3011.9740
2381.0000;3017.5660
2382.0000;3023.6310
2383.0000;3020.2390
2384.0000;3013.3680
2385.0000;3011.6500
2386.0000;3011.9870
2387.0000;3007.4940
2388.0000;3001.1450
2389.0000;2998.9780
2390.0000;3001.4140
2391.0000;3001.5320
2392.0000;2998.0800
2393.0000;2992.5250
2394.0000;2986.0660
2395.0000;2983.2870
2396.0000;2987.0090
2397.0000;2991.3600
2398.0000;2990.5650
2399.0000;2988.2060
2400.0000;2986.3240
2401.0000;2987.1140
2402.0000;2994.3540
2403.0000;3003.0220
2404.0000;3005.6350
2405.0000;3000.7400
2406.0000;2989.4500
2407.0000;2976.6640
2408.0000;2978.5290
2409.0000;2994.6060
2410.0000;2997.4330
2411.0000;2979.2210
2412.0000;2970.3170
2413.0000;2983.7050
2414.0000;2998.1080
2415.0000;2999.8910
2416.0000;2994.8810
2417.0000;2987.4970
2418.0000;2980.5000
2419.0000;2980.4930
2420.0000;2983.2900
2421.0000;2979.3450
2422.0000;2974.1410
2423.0000;2976.7520
2424.0000;2982.7890
2425.0000;2977.1860
2426.0000;2963.7250
2427.0000;2965.3660
2428.0000;2983.6820
2429.0000;2992.7040
2430.0000;2984.1000
2431.0000;2970.0240
2432.0000;2957.6880
2433.0000;2948.3980
2434.0000;2945.1590
2435.0000;2946.6560
2436.0000;2948.9190
2437.0000;2950.7590
2438.0000;2946.0260
2439.0000;2942.4180
2440.0000;2949.2720
2441.0000;2961.7420
2442.0000;2970.3490
2443.0000;2973.8590
2444.0000;2976.6740
2445.0000;2976.2710
2446.0000;2971.7810
2447.0000;2963.9140
2448.0000;2955.0570
2449.0000;2948.7170
2450.0000;2949.3920
2451.0000;2958.9050
2452.0000;2965.1780
2453.0000;2961.0230
2454.0000;2955.9420
2455.0000;2956.6290
2456.0000;2957.8870
2457.0000;2955.5470
2458.0000;2953.6000
2459.0000;2955.5420
2460.0000;2959.1490
2461.0000;2962.7540
2462.0000;2962.4900
2463.0000;2952.2080
2464.0000;2938.4540
2465.0000;2934.8850
2466.0000;2941.5900
2467.0000;2944.0630
2468.0000;2941.5740
2469.0000;2940.1410
2470.0000;2940.5070
2471.0000;2938.4120
2472.0000;2933.3750
2473.0000;2932.0100
2474.0000;2936.9990
2475.0000;2937.0650
2476.0000;2924.5580
2477.0000;2916.3400
2478.0000;2925.6520
2479.0000;2935.6920
2480.0000;2928.7930
2481.0000;2919.5800
2482.0000;2926.1190
2483.0000;2936.2580
2484.0000;2932.2270
2485.0000;2923.3340
2486.0000;2927.5550
2487.0000;2939.0820
2488.0000;2942.1190
2489.0000;2938.4530
2490.0000;2941.4970
2491.0000;2949.7670
2492.0000;2953.9910
2493.0000;2951.4790
2494.0000;2946.3020
2495.0000;2939.6080
2496.0000;2929.3030
2497.0000;2916.8650
2498.0000;2910.4750
2499.0000;2914.4880
2500.0000;2923.1400
2501.0000;2930.6580
2502.0000;2936.5390
2503.0000;2939.7300
2504.0000;2938.5160
2505.0000;2934.5830
2506.0000;2928.5210
2507.0000;2922.0020
2508.0000;2919.1440
2509.0000;2924.1350
2510.0000;2931.5230
2511.0000;2928.9850
2512.0000;2920.8780
2513.0000;2920.2670
2514.0000;2923.4060
2515.0000;2915.8290
2516.0000;2900.7460
2517.0000;2894.8270
2518.0000;2900.0600
2519.0000;2902.4780
2520.0000;2899.6340
2521.0000;2897.7280
2522.0000;2898.4060
2523.0000;2898.5820
2524.0000;2897.4460
2525.0000;2902.5900
2526.0000;2916.9660
2527.0000;2925.1180
2528.0000;2916.4460
2529.0000;2906.5900
2530.0000;2909.9210
2531.0000;2911.0730
2532.0000;2897.1540
2533.0000;2880.5000
2534.0000;2871.9770
2535.0000;2868.7660
2536.0000;2859.6270
2537.0000;2853.2770
2538.0000;2853.1230
2539.0000;2858.9850
2540.0000;2864.8340
2541.0000;2869.3610
2542.0000;2872.4580
2543.0000;2871.5220
2544.0000;2866.7930
2545.0000;2858.1140
2546.0000;2844.6880
2547.0000;2831.3390
2548.0000;2829.2460
2549.0000;2839.4300
2550.0000;2840.9110
2551.0000;2829.6510
2552.0000;2822.5980
2553.0000;2825.6670
2554.0000;2835.3170
2555.0000;2849.3510
2556.0000;2855.5870
2557.0000;2847.0100
2558.0000;2838.8010
2559.0000;2841.5940
2560.0000;2845.2230
2561.0000;2843.4350
2562.0000;2840.0840
2563.0000;2836.9470
2564.0000;2836.9470
2565.0000;2843.5080
2566.0000;2849.1270
2567.0000;2844.8960
2568.0000;2837.9840
2569.0000;2838.6600
2570.0000;2842.8180
2571.0000;2843.2500
2572.0000;2843.8750
2573.0000;2852.4480
2574.0000;2860.0850
2575.0000;2851.5810
2576.0000;2835.3040
2577.0000;2832.2310
2578.0000;2840.8630
2579.0000;2844.8060
2580.0000;2844.7030
2581.0000;2847.3540
2582.0000;2850.8690
2583.0000;2848.8950
2584.0000;2841.9720
2585.0000;2838.0390
2586.0000;2839.0140
2587.0000;2838.8210
2588.0000;2836.2690
2589.0000;2832.1990
2590.0000;2827.5710
2591.0000;2824.3360
2592.0000;2823.7930
2593.0000;2822.1250
2594.0000;2817.8080
2595.0000;2812.4940
2596.0000;2807.2460
2597.0000;2804.1540
2598.0000;2804.2710
2599.0000;2806.7400
2600.0000;2809.7710
2601.0000;2815.2040
2602.0000;2824.0670
2603.0000;2828.7200
2604.0000;2824.4780
2605.0000;2814.5730
2606.0000;2804.4740
2607.0000;2795.9410
2608.0000;2788.6560
2609.0000;2788.9410
2610.0000;2796.9270
2611.0000;2810.5270
2612.0000;2824.6910
2613.0000;2832.9740
2614.0000;2831.4890
2615.0000;2823.7600
2616.0000;2823.5160
2617.0000;2825.7980
2618.0000;2824.9690
2619.0000;2820.5110
2620.0000;2810.0660
2621.0000;2799.8830
2622.0000;2798.3840
2623.0000;2806.2810
2624.0000;2816.5430
2625.0000;2825.7420
2626.0000;2829.1010
2627.0000;2825.0300
2628.0000;2819.2020
2629.0000;2813.4880
2630.0000;2811.4150
2631.0000;2812.6410
2632.0000;2809.1410
2633.0000;2802.0510
2634.0000;2798.9650
2635.0000;2800.8300
2636.0000;2802.4990
2637.0000;2801.6660
2638.0000;2793.8090
2639.0000;2779.8100
2640.0000;2766.4890
2641.0000;2759.7390
2642.0000;2760.7250
2643.0000;2770.3720
2644.0000;2780.5570
2645.0000;2786.5840
2646.0000;2786.5190
2647.0000;2779.4840
2648.0000;2773.4350
2649.0000;2772.9850
2650.0000;2776.9840
2651.0000;2784.9160
2652.0000;2791.8730
2653.0000;2794.4940
2654.0000;2789.9260
2655.0000;2777.6930
2656.0000;2772.2130
2657.0000;2781.0790
2658.0000;2786.9730
2659.0000;2779.5380
2660.0000;2776.4370
2661.0000;2787.3940
2662.0000;2792.9480
2663.0000;2781.2280
2664.0000;2770.8290
2665.0000;2774.8420
2666.0000;2780.7310
2667.0000;2780.4490
2668.0000;2779.5240
2669.0000;2781.7960
2670.0000;2776.4590
2671.0000;2755.6240
2672.0000;2739.4690
2673.0000;2743.8750
2674.0000;2751.1750
2675.0000;2742.6510
2676.0000;2737.9440
2677.0000;2750.8800
2678.0000;2763.3870
2679.0000;2760.4370
2680.0000;2749.8080
2681.0000;2739.7310
2682.0000;2732.8190
2683.0000;2732.3280
2684.0000;2734.5750
2685.0000;2732.0620
2686.0000;2730.0260
2687.0000;2732.5660
2688.0000;2733.6070
2689.0000;2726.1390
2690.0000;2719.5910
2691.0000;2724.0520
2692.0000;2731.3060
2693.0000;2730.9990
2694.0000;2728.6260
2695.0000;2730.6960
2696.0000;2731.4820
2697.0000;2725.2200
2698.0000;2719.5390
2699.0000;2723.1950
2700.0000;2728.4480
2701.0000;2725.6890
2702.0000;2719.6800
2703.0000;2714.7050
2704.0000;2713.8360
2705.0000;2720.0330
2706.0000;2727.7040
2707.0000;2728.7540
2708.0000;2725.6590
2709.0000;2723.2470
2710.0000;2721.1800
2711.0000;2721.5620
2712.0000;2720.6960
2713.0000;2712.4270
2714.0000;2705.1110
2715.0000;2706.3720
2716.0000;2713.0260
2717.0000;2719.1020
2718.0000;2721.9060
2719.0000;2717.6300
2720.0000;2711.7680
2721.0000;2714.2100
2722.0000;2717.2700
2723.0000;2711.6450
2724.0000;2703.8930
2725.0000;2701.7410
2726.0000;2700.2530
2727.0000;2691.8520
2728.0000;2683.8370
2729.0000;2681.5340
2730.0000;2681.8950
2731.0000;2675.4960
2732.0000;2675.4480
2733.0000;2693.8990
2734.0000;2711.9030
2735.0000;2709.2250
2736.0000;2698.5770
2737.0000;2698.8250
2738.0000;2700.1500
2739.0000;2695.9420
2740.0000;2689.4840
2741.0000;2682.1970
2742.0000;2677.7510
2743.0000;2677.0570
2744.0000;2681.3000
2745.0000;2689.0900
2746.0000;2693.9050
2747.0000;2687.8000
2748.0000;2684.1080
2749.0000;2696.5980
2750.0000;2705.3010
2751.0000;2692.8600
2752.0000;2680.4490
2753.0000;2686.3040
2754.0000;2695.4570
2755.0000;2696.7600
2756.0000;2693.1490
2757.0000;2686.0790
2758.0000;2681.0100
2759.0000;2683.6730
2760.0000;2684.5440
2761.0000;2676.8210
2762.0000;2668.3750
2763.0000;2664.7270
2764.0000;2660.3610
2765.0000;2652.4900
2766.0000;2648.1290
2767.0000;2650.7160
2768.0000;2652.6100
2769.0000;2648.9960
2770.0000;2648.8650
2771.0000;2655.7790
2772.0000;2658.6570
2773.0000;2652.3890
2774.0000;2649.3170
2775.0000;2654.9380
2776.0000;2659.8760
2777.0000;2659.9310
2778.0000;2652.0830
2779.0000;2636.6920
2780.0000;2628.3520
2781.0000;2632.8600
2782.0000;2636.6410
2783.0000;2635.7800
2784.0000;2637.0220
2785.0000;2641.3100
2786.0000;2646.8650
2787.0000;2651.3410
2788.0000;2651.5910
2789.0000;2645.9190
2790.0000;2636.3920
2791.0000;2625.9530
2792.0000;2618.1880
2793.0000;2615.2760
2794.0000;2609.7060
2795.0000;2603.7580
2796.0000;2600.8450
2797.0000;2602.6200
2798.0000;2605.4440
2799.0000;2609.4110
2800.0000;2614.8470
2801.0000;2619.9080
2802.0000;2624.1490
2803.0000;2625.7270
2804.0000;2625.8280
2805.0000;2624.6750
2806.0000;2625.6790
2807.0000;2627.5400
2808.0000;2628.0160
2809.0000;2627.7900
2810.0000;2628.3880
2811.0000;2629.8740
2812.0000;2634.8130
2813.0000;2636.0760
2814.0000;2624.0610
2815.0000;2610.9390
2816.0000;2611.4760
2817.0000;2620.1680
2818.0000;2626.2260
2819.0000;2633.1080
2820.0000;2644.0460
2821.0000;2646.5330
2822.0000;2631.6150
2823.0000;2619.3650
2824.0000;2627.2470
2825.0000;2638.8300
2826.0000;2641.8930
2827.0000;2642.0450
2828.0000;2641.5020
2829.0000;2642.4300
2830.0000;2646.7740
2831.0000;2646.4620
2832.0000;2638.5340
2833.0000;2633.3050
2834.0000;2635.1990
2835.0000;2636.6490
2836.0000;2635.6510
2837.0000;2638.4470
2838.0000;2643.4680
2839.0000;2635.4080
2840.0000;2614.3150
2841.0000;2598.5430
2842.0000;2594.6450
2843.0000;2591.6010
2844.0000;2591.1440
2845.0000;2593.5870
2846.0000;2597.9870
2847.0000;2600.7490
2848.0000;2600.4800
2849.0000;2596.0890
2850.0000;2592.4070
2851.0000;2600.2160
2852.0000;2612.9530
2853.0000;2619.6190
2854.0000;2617.1590
2855.0000;2605.7370
2856.0000;2594.4000
2857.0000;2599.7940
2858.0000;2606.7980
2859.0000;2594.2530
2860.0000;2581.6280
2861.0000;2586.4030
2862.0000;2591.7640
2863.0000;2582.6220
2864.0000;2577.1830
2865.0000;2587.3630
2866.0000;2594.6320
2867.0000;2587.5400
2868.0000;2583.2100
2869.0000;2589.6480
2870.0000;2592.3530
2871.0000;2586.3740
2872.0000;2586.3560
2873.0000;2594.5710
2874.0000;2592.3580
2875.0000;2578.2630
2876.0000;2574.2630
2877.0000;2581.8440
2878.0000;2578.8760
2879.0000;2569.3520
2880.0000;2575.3270
2881.0000;2592.4750
2882.0000;2600.5900
2883.0000;2597.4040
2884.0000;2589.8580
2885.0000;2577.8620
2886.0000;2563.8120
2887.0000;2554.6810
2888.0000;2553.1250
2889.0000;2561.6470
2890.0000;2576.8690
2891.0000;2587.7350
2892.0000;2581.6250
2893.0000;2574.2250
2894.0000;2582.3570
2895.0000;2581.8190
2896.0000;2558.1070
2897.0000;2544.2750
2898.0000;2557.9100
2899.0000;2574.5800
2900.0000;2582.2510
2901.0000;2578.9160
2902.0000;2564.6920
2903.0000;2557.5680
2904.0000;2562.8510
2905.0000;2568.7040
2906.0000;2573.4150
2907.0000;2581.0680
2908.0000;2586.5420
2909.0000;2579.7630
2910.0000;2566.2880
2911.0000;2566.3240
2912.0000;2572.8130
2913.0000;2565.9590
2914.0000;2554.9510
2915.0000;2553.0440
2916.0000;2553.6970
2917.0000;2545.7920
2918.0000;2540.6970
2919.0000;2547.7690
2920.0000;2549.1530
2921.0000;2529.8740
2922.0000;2522.4600
2923.0000;2545.3210
2924.0000;2565.8380
2925.0000;2566.1130
2926.0000;2564.8370
2927.0000;2565.7520
2928.0000;2560.5710
2929.0000;2549.9920
2930.0000;2543.3110
2931.0000;2542.1050
2932.0000;2536.5800
2933.0000;2529.5170
2934.0000;2524.5240
2935.0000;2525.1380
2936.0000;2533.7530
2937.0000;2542.3210
2938.0000;2534.0570
2939.0000;2523.0500
2940.0000;2531.0730
2941.0000;2538.4710
2942.0000;2525.1180
2943.0000;2511.6490
2944.0000;2513.4400
2945.0000;2518.7760
2946.0000;2520.5930
2947.0000;2517.4910
2948.0000;2508.9710
2949.0000;2508.8350
2950.0000;2520.2090
2951.0000;2527.4810
2952.0000;2527.3320
2953.0000;2528.0510
2954.0000;2528.6410
2955.0000;2526.3200
2956.0000;2522.1650
2957.0000;2520.5430
2958.0000;2518.3010
2959.0000;2507.8990
2960.0000;2497.0120
2961.0000;2495.4520
2962.0000;2493.2970
2963.0000;2477.2940
2964.0000;2466.8670
2965.0000;2474.8500
2966.0000;2484.0890
2967.0000;2483.2250
2968.0000;2488.3330
2969.0000;2501.9970
2970.0000;2503.8310
2971.0000;2491.4270
2972.0000;2496.5200
2973.0000;2515.7570
2974.0000;2511.3130
2975.0000;2490.2430
2976.0000;2491.9440
2977.0000;2504.1310
2978.0000;2493.6760
2979.0000;2479.0420
2980.0000;2487.9650
2981.0000;2498.7080
2982.0000;2486.5820
2983.0000;2473.3410
2984.0000;2474.6630
2985.0000;2477.5910
2986.0000;2475.1220
2987.0000;2475.4190
2988.0000;2480.0040
2989.0000;2480.5190
2990.0000;2476.1140
2991.0000;2475.8540
2992.0000;2481.0090
2993.0000;2489.8670
2994.0000;2497.7960
2995.0000;2496.7930
2996.0000;2492.3130
2997.0000;2501.0890
2998.0000;2508.8550
2999.0000;2500.7410
3000.0000;2488.8080
3001.0000;2486.0780
3002.0000;2482.9440
3003.0000;2474.3140
3004.0000;2470.8390
3005.0000;2475.8890
3006.0000;2476.3180
3007.0000;2469.6200
3008.0000;2467.1230
3009.0000;2468.6020
3010.0000;2462.0710
3011.0000;2453.1910
3012.0000;2456.2680
3013.0000;2464.7230
3014.0000;2461.5530
3015.0000;2456.7200
3016.0000;2462.0090
3017.0000;2469.4800
3018.0000;2472.8130
3019.0000;2471.8670
3020.0000;2466.8960
3021.0000;2464.6180
3022.0000;2467.6340
3023.0000;2464.0890
3024.0000;2452.9940
3025.0000;2442.5940
3026.0000;2436.4750
3027.0000;2432.0560
3028.0000;2432.1990
3029.0000;2435.6960
3030.0000;2439.6220
3031.0000;2437.3520
3032.0000;2433.9630
3033.0000;2435.9130
3034.0000;2434.3110
3035.0000;2424.1130
3036.0000;2418.9550
3037.0000;2425.0290
3038.0000;2430.2580
3039.0000;2430.9910
3040.0000;2430.9740
3041.0000;2431.7600
3042.0000;2441.3030
3043.0000;2448.9560
3044.0000;2431.5280
3045.0000;2405.8580
3046.0000;2400.9650
3047.0000;2408.8010
3048.0000;2417.1670
3049.0000;2420.6710
3050.0000;2412.7690
3051.0000;2405.5850
3052.0000;2405.7370
3053.0000;2413.7130
3054.0000;2425.3740
3055.0000;2421.6600
3056.0000;2403.9090
3057.0000;2391.8860
3058.0000;2389.8960
3059.0000;2393.8820
3060.0000;2402.6860
3061.0000;2409.4680
3062.0000;2410.2560
3063.0000;2401.8930
3064.0000;2398.0530
3065.0000;2407.5000
3066.0000;2410.1360
3067.0000;2399.6430
3068.0000;2393.8920
3069.0000;2396.2020
3070.0000;2400.0080
3071.0000;2401.3180
3072.0000;2391.4070
3073.0000;2378.5000
3074.0000;2375.6150
3075.0000;2380.6690
3076.0000;2387.8900
3077.0000;2392.2320
3078.0000;2388.7200
3079.0000;2384.9960
3080.0000;2385.0130
3081.0000;2384.9050
3082.0000;2385.3560
3083.0000;2391.1880
3084.0000;2400.5040
3085.0000;2409.3820
3086.0000;2411.3630
3087.0000;2402.1760
3088.0000;2389.8800
3089.0000;2387.1210
3090.0000;2390.7540
3091.0000;2397.0390
3092.0000;2405.5030
3093.0000;2412.9620
3094.0000;2415.5420
3095.0000;2411.4930
3096.0000;2405.3970
3097.0000;2398.8950
3098.0000;2392.5790
3099.0000;2389.4250
3100.0000;2390.5190
3101.0000;2390.4980
3102.0000;2380.8770
3103.0000;2373.0790
3104.0000;2374.4260
3105.0000;2379.5290
3106.0000;2385.4390
3107.0000;2393.0530
3108.0000;2399.0440
3109.0000;2400.2550
3110.0000;2396.5280
3111.0000;2394.8650
3112.0000;2392.3970
3113.0000;2385.2950
3114.0000;2379.4430
3115.0000;2379.3530
3116.0000;2379.2680
3117.0000;2375.5740
3118.0000;2369.9400
3119.0000;2364.0000
3120.0000;2360.2470
3121.0000;2359.2630
3122.0000;2355.8610
3123.0000;2352.0210
3124.0000;2348.6620
3125.0000;2347.9530
3126.0000;2351.1720
3127.0000;2348.9370
3128.0000;2335.3260
3129.0000;2327.5950
3130.0000;2332.8090
3131.0000;2334.0970
3132.0000;2331.8600
3133.0000;2341.9000
3134.0000;2355.9620
3135.0000;2356.9610
3136.0000;2346.5970
3137.0000;2332.2240
3138.0000;2324.9360
3139.0000;2333.3580
3140.0000;2345.6220
3141.0000;2352.2770
3142.0000;2349.1850
3143.0000;2335.9740
3144.0000;2322.3020
3145.0000;2313.3560
3146.0000;2308.2750
3147.0000;2309.1840
3148.0000;2310.7960
3149.0000;2312.7320
3150.0000;2312.3690
3151.0000;2310.4480
3152.0000;2307.7800
3153.0000;2307.4960
3154.0000;2310.7760
3155.0000;2317.2640
3156.0000;2322.6150
3157.0000;2319.6940
3158.0000;2313.5090
3159.0000;2314.4840
3160.0000;2316.8930
3161.0000;2316.6060
3162.0000;2309.3720
3163.0000;2295.2950
3164.0000;2288.5520
3165.0000;2293.3760
3166.0000;2301.7750
3167.0000;2308.8120
3168.0000;2304.5720
3169.0000;2299.4130
3170.0000;2309.0070
3171.0000;2318.3230
3172.0000;2316.7770
3173.0000;2316.0250
3174.0000;2319.3470
3175.0000;2319.7510
3176.0000;2315.6380
3177.0000;2308.5540
3178.0000;2299.9570
3179.0000;2290.0230
3180.0000;2284.1080
3181.0000;2283.3010
3182.0000;2288.2790
3183.0000;2296.1680
3184.0000;2297.3420
3185.0000;2289.1410
3186.0000;2281.2260
3187.0000;2277.8520
3188.0000;2282.4170
3189.0000;2288.1670
3190.0000;2281.2530
3191.0000;2275.8020
3192.0000;2282.9710
3193.0000;2284.6890
3194.0000;2275.1490
3195.0000;2272.6690
3196.0000;2279.8980
3197.0000;2287.7280
3198.0000;2292.0730
3199.0000;2289.2010
3200.0000;2282.8100
3201.0000;2280.6340
3202.0000;2278.1770
3203.0000;2274.1980
3204.0000;2274.9810
3205.0000;2280.5220
3206.0000;2280.6210
3207.0000;2276.9670
3208.0000;2280.5260
3209.0000;2281.3040
3210.0000;2266.2330
3211.0000;2255.8360
3212.0000;2264.4650
3213.0000;2273.1510
3214.0000;2274.1800
3215.0000;2272.1310
3216.0000;2268.0940
3217.0000;2266.8020
3218.0000;2265.4970
3219.0000;2259.7280
3220.0000;2250.5130
3221.0000;2238.8960
3222.0000;2231.9690
3223.0000;2233.5450
3224.0000;2242.1980
3225.0000;2251.5260
3226.0000;2244.9490
3227.0000;2229.1570
3228.0000;2220.5560
3229.0000;2217.1710
3230.0000;2215.3410
3231.0000;2224.8050
3232.0000;2244.0040
3233.0000;2244.4130
3234.0000;2227.7600
3235.0000;2232.6290
3236.0000;2245.2360
3237.0000;2236.2400
3238.0000;2221.7630
3239.0000;2217.2110
3240.0000;2215.5900
3241.0000;2215.0110
3242.0000;2215.9040
3243.0000;2217.3260
3244.0000;2215.6500
3245.0000;2214.0360
3246.0000;2219.3350
3247.0000;2222.5270
3248.0000;2216.4070
3249.0000;2210.5400
3250.0000;2210.1620
3251.0000;2214.1350
3252.0000;2220.6040
3253.0000;2223.3140
3254.0000;2223.0130
3255.0000;2226.3120
3256.0000;2221.3420
3257.0000;2201.9940
3258.0000;2199.5940
3259.0000;2221.9230
3260.0000;2227.5610
3261.0000;2216.9720
3262.0000;2222.8260
3263.0000;2230.4530
3264.0000;2219.5430
3265.0000;2211.8650
3266.0000;2221.1690
3267.0000;2225.6830
3268.0000;2219.1060
3269.0000;2209.7880
3270.0000;2198.6940
3271.0000;2180.6260
3272.0000;2172.1730
3273.0000;2185.7870
3274.0000;2200.4670
3275.0000;2200.9650
3276.0000;2199.5830
3277.0000;2199.1830
3278.0000;2204.7150
3279.0000;2209.1000
3280.0000;2198.5200
3281.0000;2189.5880
3282.0000;2198.1570
3283.0000;2201.9520
3284.0000;2193.4130
3285.0000;2187.4320
3286.0000;2186.5560
3287.0000;2187.1810
3288.0000;2187.6170
3289.0000;2182.3670
3290.0000;2183.7490
3291.0000;2196.9100
3292.0000;2195.9300
3293.0000;2178.4130
3294.0000;2173.7880
3295.0000;2180.5920
3296.0000;2182.8660
3297.0000;2183.0760
3298.0000;2182.0110
3299.0000;2174.1410
3300.0000;2161.1370
3301.0000;2162.3640
3302.0000;2172.8130
3303.0000;2160.0240
3304.0000;2142.9270
3305.0000;2149.9660
3306.0000;2157.2540
3307.0000;2149.8850
3308.0000;2150.3200
3309.0000;2159.0370
3310.0000;2154.4090
3311.0000;2140.9000
3312.0000;2130.9970
3313.0000;2127.1620
3314.0000;2129.3590
3315.0000;2139.2290
3316.0000;2152.6420
3317.0000;2156.5980
3318.0000;2147.6130
3319.0000;2129.5520
3320.0000;2120.2970
3321.0000;2139.4910
3322.0000;2156.4310
3323.0000;2152.4050
3324.0000;2149.9790
3325.0000;2149.4310
3326.0000;2141.0330
3327.0000;2131.2710
3328.0000;2129.7560
3329.0000;2129.1150
3330.0000;2124.1420
3331.0000;2122.1710
3332.0000;2124.7460
3333.0000;2128.0220
3334.0000;2130.9980
3335.0000;2132.4280
3336.0000;2134.3060
3337.0000;2138.5470
3338.0000;2139.6210
3339.0000;2136.8750
3340.0000;2137.8440
3341.0000;2141.4410
3342.0000;2143.9970
3343.0000;2145.4430
3344.0000;2146.2360
3345.0000;2141.1800
3346.0000;2131.5710
3347.0000;2130.6030
3348.0000;2135.7810
3349.0000;2132.0070
3350.0000;2126.0440
3351.0000;2124.6150
3352.0000;2121.6330
3353.0000;2116.2580
3354.0000;2113.9700
3355.0000;2118.4730
3356.0000;2133.7650
3357.0000;2144.9100
3358.0000;2136.5410
3359.0000;2127.2190
3360.0000;2126.7070
3361.0000;2123.5850
3362.0000;2119.4960
3363.0000;2118.9880
3364.0000;2121.6690
3365.0000;2124.6840
3366.0000;2129.2390
3367.0000;2133.8230
3368.0000;2132.4690
3369.0000;2125.7550
3370.0000;2121.8080
3371.0000;2117.8220
3372.0000;2109.3300
3373.0000;2109.4310
3374.0000;2120.8590
3375.0000;2125.1350
3376.0000;2120.1050
3377.0000;2115.2290
3378.0000;2112.5430
3379.0000;2115.3120
3380.0000;2113.0740
3381.0000;2103.3840
3382.0000;2102.1760
3383.0000;2108.2060
3384.0000;2106.2240
3385.0000;2103.7300
3386.0000;2107.6610
3387.0000;2111.0890
3388.0000;2111.0050
3389.0000;2109.6180
3390.0000;2106.9110
3391.0000;2103.2780
3392.0000;2099.7480
3393.0000;2096.8690
3394.0000;2096.5180
3395.0000;2098.6140
3396.0000;2099.3220
3397.0000;2097.4500
3398.0000;2093.1460
3399.0000;2085.8440
3400.0000;2077.1660
3401.0000;2082.7890
3402.0000;2100.0960
3403.0000;2096.8170
3404.0000;2083.0410
3405.0000;2087.6140
3406.0000;2086.0740
3407.0000;2066.7210
3408.0000;2067.1080
3409.0000;2085.3060
3410.0000;2075.4460
3411.0000;2058.4470
3412.0000;2065.2950
3413.0000;2073.9080
3414.0000;2072.7110
3415.0000;2072.3370
3416.0000;2070.9360
3417.0000;2060.6420
3418.0000;2051.5690
3419.0000;2052.9560
3420.0000;2062.5630
3421.0000;2073.8130
3422.0000;2065.6500
3423.0000;2051.2110
3424.0000;2067.1190
3425.0000;2081.5080
3426.0000;2068.8900
3427.0000;2054.7190
3428.0000;2048.8340
3429.0000;2050.5350
3430.0000;2055.0500
3431.0000;2049.3860
3432.0000;2049.2860
3433.0000;2060.9250
3434.0000;2067.4230
3435.0000;2068.0200
3436.0000;2076.5560
3437.0000;2083.3900
3438.0000;2081.6780
3439.0000;2070.5820
3440.0000;2053.9680
3441.0000;2041.2390
3442.0000;2038.0950
3443.0000;2041.4390
3444.0000;2047.8030
3445.0000;2050.3080
3446.0000;2052.2570
3447.0000;2053.3230
3448.0000;2053.8850
3449.0000;2054.5730
3450.0000;2057.2950
3451.0000;2056.1800
3452.0000;2049.1570
3453.0000;2037.2950
3454.0000;2028.9000
3455.0000;2036.3250
3456.0000;2041.9100
3457.0000;2030.9310
3458.0000;2029.7550
3459.0000;2039.0840
3460.0000;2030.1970
3461.0000;2018.9240
3462.0000;2028.2950
3463.0000;2029.1380
3464.0000;2012.7250
3465.0000;2012.0920
3466.0000;2022.7000
3467.0000;2017.6930
3468.0000;2013.6060
3469.0000;2020.9430
3470.0000;2020.1750
3471.0000;2010.6130
3472.0000;2006.9430
3473.0000;2010.1140
3474.0000;2016.9570
3475.0000;2030.5790
3476.0000;2045.5880
3477.0000;2040.6730
3478.0000;2022.4460
3479.0000;2015.9200
3480.0000;2013.7300
3481.0000;2010.9290
3482.0000;2005.0160
3483.0000;2000.9330
3484.0000;2012.2800
3485.0000;2021.2420
3486.0000;2008.8260
3487.0000;1994.1330
3488.0000;1988.0980
3489.0000;1992.6380
3490.0000;2001.3730
3491.0000;1998.7170
3492.0000;1993.1500
3493.0000;1989.9060
3494.0000;1990.4300
3495.0000;1993.5000
3496.0000;1991.7620
3497.0000;1994.4990
3498.0000;2006.4370
3499.0000;2004.8700
3500.0000;1989.1730
3501.0000;1980.6980
3502.0000;1981.1540
3503.0000;1988.3650
3504.0000;1986.9520
3505.0000;1974.9300
3506.0000;1978.6910
3507.0000;1990.4670
3508.0000;1991.8340
3509.0000;1987.3620
3510.0000;1980.0620
3511.0000;1970.4660
3512.0000;1964.8660
3513.0000;1970.1160
3514.0000;1974.5420
3515.0000;1968.5860
3516.0000;1970.2880
3517.0000;1977.9470
3518.0000;1974.6480
3519.0000;1969.7670
3520.0000;1973.2760
3521.0000;1970.1830
3522.0000;1961.0860
3523.0000;1961.9570
3524.0000;1968.3100
3525.0000;1970.8070
3526.0000;1972.6840
3527.0000;1974.7140
3528.0000;1979.8390
3529.0000;1983.3860
3530.0000;1979.6030
3531.0000;1976.8320
3532.0000;1978.8120
3533.0000;1975.6300
3534.0000;1970.3930
3535.0000;1972.0160
3536.0000;1971.5190
3537.0000;1963.8390
3538.0000;1956.9080
3539.0000;1952.9000
3540.0000;1947.5560
3541.0000;1950.1100
3542.0000;1962.8320
3543.0000;1962.7960
3544.0000;1950.7250
3545.0000;1951.2950
3546.0000;1951.4120
3547.0000;1940.4490
3548.0000;1930.0040
3549.0000;1926.5330
3550.0000;1929.5230
3551.0000;1937.1460
3552.0000;1943.4060
3553.0000;1941.8750
3554.0000;1932.9500
3555.0000;1930.6500
3556.0000;1930.0100
3557.0000;1923.2540
3558.0000;1921.0590
3559.0000;1923.6440
3560.0000;1914.0890
3561.0000;1900.3170
3562.0000;1892.8290
3563.0000;1898.4010
3564.0000;1914.2240
3565.0000;1919.8050
3566.0000;1916.5940
3567.0000;1915.5590
3568.0000;1916.3960
3569.0000;1919.2040
3570.0000;1918.3660
3571.0000;1915.7850
3572.0000;1916.3040
3573.0000;1915.6410
3574.0000;1913.0980
3575.0000;1917.9410
3576.0000;1918.8580
3577.0000;1897.0370
3578.0000;1879.0080
3579.0000;1880.4100
3580.0000;1891.3950
3581.0000;1901.3060
3582.0000;1891.6030
3583.0000;1887.5020
3584.0000;1898.8610
3585.0000;1891.4360
3586.0000;1876.7580
3587.0000;1884.4280
3588.0000;1886.8640
3589.0000;1872.7160
3590.0000;1863.8500
3591.0000;1863.7660
3592.0000;1868.8410
3593.0000;1872.0800
3594.0000;1871.0750
3595.0000;1886.7090
3596.0000;1903.9870
3597.0000;1897.4890
3598.0000;1886.7620
3599.0000;1883.6980
3600.0000;1883.2530
3601.0000;1887.0190
3602.0000;1894.6290
3603.0000;1894.0830
3604.0000;1884.4440
3605.0000;1889.5160
3606.0000;1901.0520
3607.0000;1901.4420
3608.0000;1897.7270
3609.0000;1893.3290
3610.0000;1889.8950
3611.0000;1889.5370
3612.0000;1892.6840
3613.0000;1895.1430
3614.0000;1893.9570
3615.0000;1889.7650
3616.0000;1880.3460
3617.0000;1865.3940
3618.0000;1871.2820
3619.0000;1892.6330
3620.0000;1878.9260
3621.0000;1859.4710
3622.0000;1866.7320
3623.0000;1870.2890
3624.0000;1865.1660
3625.0000;1860.8160
3626.0000;1858.0650
3627.0000;1857.9610
3628.0000;1864.0730
3629.0000;1872.5000
3630.0000;1873.9440
3631.0000;1868.5480
3632.0000;1859.9420
3633.0000;1856.8480
3634.0000;1860.7150
3635.0000;1866.3470
3636.0000;1869.3420
3637.0000;1866.8000
3638.0000;1863.9010
3639.0000;1864.2460
3640.0000;1871.7330
3641.0000;1875.6430
3642.0000;1870.9150
3643.0000;1862.6820
3644.0000;1855.8860
3645.0000;1855.9500
3646.0000;1857.1320
3647.0000;1856.8920
3648.0000;1854.9800
3649.0000;1853.7770
3650.0000;1855.4230
3651.0000;1849.5930
3652.0000;1839.1240
3653.0000;1836.8520
3654.0000;1842.3480
3655.0000;1850.3870
3656.0000;1842.6440
3657.0000;1828.9110
3658.0000;1838.2620
3659.0000;1851.2290
3660.0000;1853.9850
3661.0000;1850.0350
3662.0000;1842.3340
3663.0000;1839.0050
3664.0000;1833.9090
3665.0000;1827.2900
3666.0000;1824.9180
3667.0000;1825.0430
3668.0000;1823.0880
3669.0000;1825.3550
3670.0000;1827.5430
3671.0000;1811.9870
3672.0000;1803.4530
3673.0000;1817.5420
3674.0000;1812.8180
3675.0000;1798.7060
3676.0000;1810.7770
3677.0000;1817.9300
3678.0000;1807.2470
3679.0000;1808.6030
3680.0000;1812.5190
3681.0000;1802.5940
3682.0000;1793.6690
3683.0000;1793.9820
3684.0000;1806.7580
3685.0000;1816.3850
3686.0000;1808.2310
3687.0000;1810.7220
3688.0000;1822.0810
3689.0000;1824.9110
3690.0000;1821.0870
3691.0000;1813.9930
3692.0000;1809.2110
3693.0000;1809.2750
3694.0000;1813.7350
3695.0000;1813.6640
3696.0000;1807.6580
3697.0000;1807.2080
3698.0000;1804.1710
3699.0000;1793.0420
3700.0000;1795.6250
3701.0000;1810.2820
3702.0000;1819.3900
3703.0000;1813.5260
3704.0000;1794.5520
3705.0000;1797.8970
3706.0000;1810.5030
3707.0000;1804.8410
3708.0000;1800.6500
3709.0000;1803.3230
3710.0000;1808.6720
3711.0000;1812.7370
3712.0000;1811.1040
3713.0000;1798.8140
3714.0000;1786.3290
3715.0000;1792.5140
3716.0000;1792.3160
3717.0000;1779.5040
3718.0000;1786.1160
3719.0000;1798.4080
3720.0000;1796.8340
3721.0000;1794.8100
3722.0000;1794.7970
3723.0000;1795.1860
3724.0000;1798.0910
3725.0000;1802.6290
3726.0000;1800.5760
3727.0000;1796.8090
3728.0000;1800.3600
3729.0000;1806.3180
3730.0000;1808.8430
3731.0000;1799.3780
3732.0000;1788.6120
3733.0000;1786.5130
3734.0000;1777.1110
3735.0000;1770.3020
3736.0000;1781.5450
3737.0000;1778.5800
3738.0000;1759.2690
3739.0000;1770.5150
3740.0000;1781.7520
3741.0000;1766.2950
3742.0000;1759.9230
3743.0000;1767.4380
3744.0000;1779.8240
3745.0000;1785.2830
3746.0000;1778.3430
3747.0000;1772.0730
3748.0000;1766.0520
3749.0000;1761.4020
3750.0000;1763.6700
3751.0000;1771.2590
3752.0000;1775.8470
3753.0000;1775.8330
3754.0000;1771.9480
3755.0000;1773.4390
3756.0000;1771.4460
3757.0000;1758.9110
3758.0000;1754.6430
3759.0000;1760.5740
3760.0000;1765.9780
3761.0000;1773.7110
3762.0000;1780.0630
3763.0000;1778.5020
3764.0000;1768.8690
3765.0000;1757.5670
3766.0000;1758.4190
3767.0000;1772.1710
3768.0000;1787.5370
3769.0000;1786.5030
3770.0000;1770.7350
3771.0000;1787.5680
3772.0000;1801.6660
3773.0000;1781.6050
3774.0000;1774.2690
3775.0000;1785.4710
3776.0000;1804.6450
3777.0000;1814.5220
3778.0000;1807.7610
3779.0000;1799.7480
3780.0000;1799.7670
3781.0000;1812.4580
3782.0000;1809.7360
3783.0000;1795.9970
3784.0000;1789.3690
3785.0000;1776.8580
3786.0000;1764.1770
3787.0000;1768.1040
3788.0000;1778.2570
3789.0000;1783.7580
3790.0000;1793.5400
3791.0000;1797.9210
3792.0000;1789.0970
3793.0000;1783.7200
3794.0000;1783.8330
3795.0000;1779.1030
3796.0000;1776.6870
3797.0000;1777.6000
3798.0000;1769.4500
3799.0000;1768.5170
3800.0000;1785.7710
3801.0000;1783.8890
3802.0000;1769.9750
3803.0000;1772.8210
3804.0000;1774.7740
3805.0000;1770.0160
3806.0000;1760.5600
3807.0000;1756.0730
3808.0000;1761.1680
3809.0000;1759.3190
3810.0000;1753.4530
3811.0000;1749.8890
3812.0000;1751.8870
3813.0000;1756.3180
3814.0000;1752.6840
3815.0000;1755.5860
3816.0000;1763.8860
3817.0000;1748.6800
3818.0000;1732.5800
3819.0000;1735.7000
3820.0000;1736.3390
3821.0000;1734.2640
3822.0000;1731.9070
3823.0000;1724.3750
3824.0000;1716.4570
3825.0000;1718.8260
3826.0000;1720.7810
3827.0000;1717.0250
3828.0000;1716.0250
3829.0000;1717.4310
3830.0000;1719.3940
3831.0000;1715.4870
3832.0000;1711.5490
3833.0000;1717.0410
3834.0000;1718.9510
3835.0000;1717.4080
3836.0000;1724.6310
3837.0000;1727.9090
3838.0000;1724.0770
3839.0000;1730.1070
3840.0000;1734.4620
3841.0000;1728.4660
3842.0000;1729.4010
3843.0000;1731.9690
3844.0000;1726.0330
3845.0000;1724.7300
3846.0000;1729.7660
3847.0000;1734.8180
3848.0000;1731.2340
3849.0000;1719.6410
3850.0000;1714.7900
3851.0000;1721.9130
3852.0000;1736.8510
3853.0000;1732.0030
3854.0000;1722.1800
3855.0000;1730.1790
3856.0000;1728.2870
3857.0000;1721.6520
3858.0000;1730.0840
3859.0000;1730.7260
3860.0000;1719.6000
3861.0000;1711.2980
3862.0000;1708.5750
3863.0000;1714.9270
3864.0000;1736.9180
3865.0000;1751.0470
3866.0000;1739.9340
3867.0000;1739.2530
3868.0000;1746.2970
3869.0000;1749.1840
3870.0000;1752.7450
3871.0000;1750.4450
3872.0000;1731.7290
3873.0000;1718.8820
3874.0000;1718.3310
3875.0000;1707.9590
3876.0000;1708.2030
3877.0000;1723.6120
3878.0000;1732.9920
3879.0000;1737.0390
3880.0000;1738.7820
3881.0000;1734.1010
3882.0000;1727.6210
3883.0000;1726.8900
3884.0000;1722.4430
3885.0000;1716.8690
3886.0000;1717.5710
3887.0000;1717.4100
3888.0000;1715.9210
3889.0000;1719.8750
3890.0000;1719.0780
3891.0000;1713.7290
3892.0000;1724.7680
3893.0000;1736.5760
3894.0000;1735.6640
3895.0000;1728.9170
3896.0000;1720.3710
3897.0000;1716.0760
3898.0000;1714.4050
3899.0000;1717.8110
3900.0000;1725.9770
3901.0000;1732.6720
3902.0000;1733.3180
3903.0000;1727.9080
3904.0000;1729.5980
3905.0000;1738.3700
3906.0000;1737.0560
3907.0000;1735.2760
3908.0000;1738.4940
3909.0000;1745.4380
3910.0000;1750.0680
3911.0000;1747.5560
3912.0000;1738.1210
3913.0000;1732.8670
3914.0000;1741.4650
3915.0000;1748.2550
3916.0000;1749.9990
3917.0000;1747.9890
3918.0000;1758.0010
3919.0000;1769.8020
3920.0000;1761.7640
3921.0000;1757.4360
3922.0000;1762.8310
3923.0000;1771.7830
3924.0000;1780.5780
3925.0000;1783.6080
3926.0000;1778.3900
3927.0000;1775.3340
3928.0000;1779.9790
3929.0000;1782.4510
3930.0000;1787.7450
3931.0000;1795.5180
3932.0000;1794.2140
3933.0000;1791.5020
3934.0000;1796.0200
3935.0000;1804.3680
3936.0000;1812.2780
3937.0000;1815.6540
3938.0000;1815.2260
3939.0000;1811.8100
3940.0000;1809.3550
3941.0000;1816.9410
3942.0000;1828.6870
3943.0000;1832.2270
3944.0000;1841.0890
3945.0000;1852.3820
3946.0000;1857.6540
3947.0000;1856.0200
3948.0000;1851.6580
3949.0000;1856.0200
3950.0000;1849.0860
3951.0000;1835.3130
3952.0000;1846.6610
3953.0000;1854.5410
3954.0000;1848.0630
3955.0000;1849.6550
3956.0000;1857.2690
3957.0000;1866.3470
3958.0000;1866.8610
3959.0000;1870.7890
3960.0000;1884.2050
3961.0000;1892.0160
3962.0000;1893.3190
3963.0000;1891.7820
3964.0000;1897.4350
3965.0000;1896.4840
3966.0000;1881.9370
3967.0000;1890.7410
3968.0000;1906.2520
3969.0000;1903.0460
3970.0000;1896.6920
3971.0000;1889.7560
3972.0000;1885.6030
3973.0000;1894.5550
3974.0000;1909.8440
3975.0000;1916.8350
3976.0000;1915.0620
3977.0000;1911.4330
3978.0000;1918.7260
3979.0000;1916.7390
3980.0000;1908.7010
3981.0000;1909.2830
3982.0000;1914.0880
3983.0000;1920.0650
3984.0000;1923.1580
3985.0000;1923.8540
3986.0000;1923.4440
3987.0000;1925.7140
3988.0000;1920.1070
3989.0000;1908.8050
3990.0000;1903.8550
3991.0000;1906.5230
3992.0000;1912.6070
3993.0000;1909.7900
3994.0000;1918.1260
3995.0000;1930.6990
3996.0000;1916.2010
3997.0000;1900.3060
3998.0000;1895.8500
3999.0000;1897.1260
4000.0000;1895.4690
4001.0000;1888.4660
4002.0000;1885.6910
4003.0000;1874.9750
4004.0000;1862.9260
4005.0000;1875.4690
4006.0000;1884.6840
4007.0000;1880.5180
4008.0000;1883.3130
4009.0000;1883.6520
4010.0000;1880.9470
4011.0000;1884.9370
4012.0000;1877.5020
4013.0000;1859.9060
4014.0000;1857.2950
4015.0000;1861.0930
4016.0000;1860.6250
4017.0000;1843.1380
4018.0000;1827.4770
4019.0000;1826.3940
4020.0000;1836.5340
4021.0000;1831.2830
4022.0000;1808.5660
4023.0000;1801.1570
4024.0000;1793.5890
4025.0000;1783.2650
4026.0000;1779.3130
4027.0000;1775.8060
4028.0000;1770.8110
4029.0000;1767.4450
4030.0000;1757.4170
4031.0000;1746.8030
4032.0000;1754.8730
4033.0000;1749.9350
4034.0000;1732.7540
4035.0000;1736.4540
4036.0000;1722.8310
4037.0000;1699.2410
4038.0000;1707.4930
4039.0000;1710.2050
4040.0000;1699.5670
4041.0000;1690.7240
4042.0000;1683.5360
4043.0000;1681.6530
4044.0000;1686.1090
4045.0000;1682.3380
4046.0000;1678.6170
4047.0000;1695.4870
4048.0000;1698.7160
4049.0000;1691.9330
4050.0000;1697.2280
4051.0000;1684.7610
4052.0000;1665.6680
4053.0000;1663.8110
4054.0000;1655.0940
4055.0000;1649.3520
4056.0000;1659.0750
4057.0000;1657.3590
4058.0000;1650.0890
4059.0000;1649.6100
4060.0000;1641.7220
4061.0000;1638.6060
4062.0000;1649.8200
4063.0000;1658.8930
4064.0000;1656.9800
4065.0000;1643.7530
4066.0000;1640.3990
4067.0000;1639.1450
4068.0000;1632.0370
4069.0000;1621.4990
4070.0000;1613.6300
4071.0000;1613.2810
4072.0000;1621.6110
4073.0000;1623.8190
4074.0000;1613.2230
4075.0000;1601.3040
4076.0000;1590.9990
4077.0000;1584.4030
4078.0000;1575.8500
4079.0000;1574.2630
4080.0000;1580.3650
4081.0000;1586.7960
4082.0000;1579.8720
4083.0000;1568.8600
4084.0000;1576.8880
4085.0000;1568.0890
4086.0000;1551.5720
4087.0000;1552.1280
4088.0000;1553.7240
4089.0000;1553.9440
4090.0000;1551.6550
4091.0000;1545.8960
4092.0000;1545.2250
4093.0000;1552.4280
4094.0000;1540.7330
4095.0000;1533.6130
4096.0000;1545.7810
4097.0000;1548.1600
4098.0000;1554.1380
4099.0000;1562.5770
4100.0000;1548.1090
4101.0000;1540.6690
4102.0000;1546.6420
4103.0000;1538.7050
4104.0000;1520.8170
4105.0000;1509.3170
4106.0000;1525.9190
4107.0000;1521.0010
4108.0000;1495.2580
4109.0000;1476.3600
4110.0000;1480.5020
4111.0000;1480.7340
4112.0000;1448.4620
4113.0000;1449.0190
4114.0000;1449.3390
4115.0000;1418.9800
4116.0000;1398.5960
4117.0000;1390.2320
4118.0000;1387.5000
4119.0000;1374.2520
4120.0000;1355.3840
4121.0000;1335.7600
4122.0000;1318.5000
4123.0000;1302.7730
4124.0000;1289.8580
4125.0000;1277.9290
4126.0000;1255.9260
4127.0000;1233.2170
4128.0000;1222.1210
4129.0000;1204.2340
4130.0000;1185.5430
4131.0000;1172.9880
4132.0000;1166.2710
4133.0000;1154.4470
4134.0000;1129.0390
4135.0000;1091.7130
4136.0000;1070.8480
4137.0000;1064.8590
4138.0000;1028.0710
4139.0000;1003.0240
4140.0000;994.6361
4141.0000;978.6259
4142.0000;957.0861
4143.0000;939.2486
4144.0000;931.6382
4145.0000;916.3375
4146.0000;898.9156
4147.0000;885.3181
4148.0000;872.1628
4149.0000;855.0939
4150.0000;837.7405
4151.0000;834.8383
4152.0000;835.7742
4153.0000;831.4288
4154.0000;818.2160
4155.0000;812.7096
4156.0000;813.1678
4157.0000;807.8314
4158.0000;791.4137
4159.0000;769.3549
4160.0000;751.4521
4161.0000;739.9201
4162.0000;736.6885
4163.0000;737.2678
4164.0000;733.7749
4165.0000;728.9074
4166.0000;726.0542
4167.0000;727.6865
4168.0000;715.4930
4169.0000;703.9329
4170.0000;711.1638
4171.0000;704.3113
4172.0000;700.6014
4173.0000;709.2417
4174.0000;703.2512
4175.0000;702.7174
4176.0000;710.8013
4177.0000;709.8974
4178.0000;698.8923
4179.0000;685.4690
4180.0000;681.5316
4181.0000;682.3212
4182.0000;684.0743
4183.0000;682.4847
4184.0000;681.9285
4185.0000;681.3538
4186.0000;680.5820
4187.0000;680.7266
4188.0000;678.1478
4189.0000;674.8160
4190.0000;675.2736
4191.0000;671.8670
4192.0000;674.7012
4193.0000;688.8788
4194.0000;686.9351
4195.0000;684.3198
4196.0000;687.3940
4197.0000;677.8342
4198.0000;674.9655
4199.0000;677.5966
4200.0000;670.7448
4201.0000;669.6307
4202.0000;669.8660
4203.0000;665.4916
4204.0000;665.9084
4205.0000;666.1070
4206.0000;665.9003
4207.0000;674.2697
4208.0000;679.8847
4209.0000;677.0840
4210.0000;667.8923
4211.0000;666.9117
4212.0000;667.9836
4213.0000;665.3965
4214.0000;676.9999
4215.0000;676.1477
4216.0000;664.6503
4217.0000;679.2033
4218.0000;674.4846
4219.0000;656.6967
4220.0000;653.5765
4221.0000;658.0425
4222.0000;658.7145
4223.0000;653.3675
4224.0000;669.0118
4225.0000;669.2894
4226.0000;656.6795
4227.0000;663.8204
4228.0000;654.7513
4229.0000;642.8023
4230.0000;646.6804
4231.0000;654.9065
4232.0000;656.1252
4233.0000;648.3780
4234.0000;646.1833
4235.0000;654.0380
4236.0000;597.8732
4237.0000;422.8235
4238.0000;230.3518
